INITIAL
* 5:40pm Feb 22, 2026
* a0_mu vs a1_stmu
* 1 2 2 2 2 2 5 1 2 2 2 2 2 5
* X X X X
* X X X X
* X X X X
* X X X X
* X X X X
* X X X X
* X X X X
* X X X X
* first 0
* time 900
* 1. b1(N) b8(g)
* 2. c7(P) d7(g)
* 3. a6(r) a8(p)
* 4. a5(m) d8(n)
* 5. c8(c) a7(p)
* 6. c6(R) b7(N)
* 7. c5(p) b6(P)
* 8. a3(p) d7-c7
* 9. c3(P) c7-b7
* 10. c6-c7 b7-c7
* 11. c2(m) a7-b7
* 12. d1(C) a8-a7
* 13. a4(M) a7-a8
* 14. d4(p) a8-a7
* 15. d6(r) a7-a8
* 16. b2(M) b7-a7
* 17. b3(C) b8-b7
* 18. b4(R) c7-d7
* 19. c4(K) a8-b8
* 20. d2(P) b7-c7
* 21. a4-a3 a7-a8
* 22. b6-c6 a6-a7
* 23. c6-c5 a7-b7
* 24. c1(G) a8-a7
* 25. a1(G) a7-a8
* 26. d3(n) a8-a7
* 27. a2(P) a7-a8
* 28. d5(c) a8-a7
* 29. c5-c6 a7-a8
* 30. c6-b6 b7-b6
* 31. c4-c5 b6-b7
* 32. c5-c4 b7-b6
* 33. c4-c5 a8-a7
* 34. c5-c4 b8-a8
* 35. c4-c5 a8-b8
* 36. c5-c4 b8-a8
* 37. c4-c5 a8-b8
* 38. c5-c4 b8-a8
* 39. c4-c5 a8-b8
* PositionRepetitionDraw,3,4 a0_mu Draw 0.500000,0.500000
* Comment 0 0
0. 1771753232820
1. 1771753232820
2. 1771753234959
3. 1771753236867
4. 1771753238768
5. 1771753240677
6. 1771753242624
7. 1771753244483
8. 1771753246431
9. 1771753248341
10. 1771753250287
11. 1771753252197
12. 1771753254094
13. 1771753256004
14. 1771753257901
15. 1771753259813
16. 1771753261809
17. 1771753263721
18. 1771753265715
19. 1771753267628
20. 1771753269622
21. 1771753271486
22. 1771753273478
23. 1771753275394
24. 1771753277384
25. 1771753279301
26. 1771753281290
27. 1771753283160
28. 1771753285147
29. 1771753287068
30. 1771753289006
31. 1771753290927
32. 1771753292913
33. 1771753294835
34. 1771753296771
35. 1771753298692
36. 1771753300680
37. 1771753302599
38. 1771753304585
39. 1771753306506
40. 1771753308492
41. 1771753310411
42. 1771753312399
43. 1771753314318
44. 1771753316307
45. 1771753318225
46. 1771753320214
47. 1771753322082
48. 1771753324070
49. 1771753325989
50. 1771753327928
51. 1771753329845
52. 1771753331836
53. 1771753333751
54. 1771753335695
55. 1771753337608
56. 1771753339603
57. 1771753341515
58. 1771753343511
59. 1771753345423
60. 1771753347418
61. 1771753349329
62. 1771753351325
63. 1771753353236
64. 1771753355231
65. 1771753357143
66. 1771753359088
67. 1771753361001
68. 1771753362995
69. 1771753364909
70. 1771753366904
71. 1771753368815
72. 1771753370712
73. 1771753372620
74. 1771753374520
75. 1771753376428
76. 1771753378377
77. 1771753380285
78. 1771753382186

# 10 12 46 48 82 84 118 120 154 156 190 192 226 228 262 264 298 300 334 336 370 372 406 408 442 444 478 480 514 516 550 552 586 588 622 624 658 660 694 696 730 732 766 768 802 804 838 840 874 876 910 912 946 948 982 984 1018 1020 1054 1056 1090 1092 1126 1128 1162 1164 1198 1200 1234 1236 1270 1272 1306 1308 1342 1344 1378 1380 #
LightZero MGTP Interface Ready
=1 LightZero_DarkChess

=2 1.0.0

=7 

=15 

=14 

=12 b1 b1

[debug] move action_id=319, action=((7, 1), (7, 1)), 
[debug] current_player=1 (B), 
[debug] board[(7, 1)]=4, board[(7, 1)]=4, 
[debug] board state:
[[15 15 15 15]
 [15 15 15 15]
 [15 15 15 15]
 [15 15 15 15]
 [15 15 15 15]
 [15 15 15 15]
 [15 15 15 15]
 [15  4 15 15]], 

=11 

=16 

[debug] move action_id=11, action=((0, 1), (0, 1)), 
[debug] current_player=0 (R), 
[debug] board[(0, 1)]=8, board[(0, 1)]=8, 
[debug] board state:
[[15  8 15 15]
 [15 15 15 15]
 [15 15 15 15]
 [15 15 15 15]
 [15 15 15 15]
 [15 15 15 15]
 [15 15 15 15]
 [15  4 15 15]], 

=11 

=16 

=12 c7 c7

[debug] move action_id=66, action=((1, 2), (1, 2)), 
[debug] current_player=1 (B), 
[debug] board[(1, 2)]=6, board[(1, 2)]=6, 
[debug] board state:
[[15  8 15 15]
 [15 15  6 15]
 [15 15 15 15]
 [15 15 15 15]
 [15 15 15 15]
 [15 15 15 15]
 [15 15 15 15]
 [15  4 15 15]], 

=11 

=16 

[debug] move action_id=77, action=((1, 3), (1, 3)), 
[debug] current_player=0 (R), 
[debug] board[(1, 3)]=8, board[(1, 3)]=8, 
[debug] board state:
[[15  8 15 15]
 [15 15  6  8]
 [15 15 15 15]
 [15 15 15 15]
 [15 15 15 15]
 [15 15 15 15]
 [15 15 15 15]
 [15  4 15 15]], 

=11 

=16 

=12 a6 a6

[debug] move action_id=88, action=((2, 0), (2, 0)), 
[debug] current_player=1 (B), 
[debug] board[(2, 0)]=10, board[(2, 0)]=10, 
[debug] board state:
[[15  8 15 15]
 [15 15  6  8]
 [10 15 15 15]
 [15 15 15 15]
 [15 15 15 15]
 [15 15 15 15]
 [15 15 15 15]
 [15  4 15 15]], 

=11 

=16 

[debug] move action_id=0, action=((0, 0), (0, 0)), 
[debug] current_player=0 (R), 
[debug] board[(0, 0)]=13, board[(0, 0)]=13, 
[debug] board state:
[[13  8 15 15]
 [15 15  6  8]
 [10 15 15 15]
 [15 15 15 15]
 [15 15 15 15]
 [15 15 15 15]
 [15 15 15 15]
 [15  4 15 15]], 

=11 

=16 

=12 a5 a5

[debug] move action_id=132, action=((3, 0), (3, 0)), 
[debug] current_player=1 (B), 
[debug] board[(3, 0)]=9, board[(3, 0)]=9, 
[debug] board state:
[[13  8 15 15]
 [15 15  6  8]
 [10 15 15 15]
 [ 9 15 15 15]
 [15 15 15 15]
 [15 15 15 15]
 [15 15 15 15]
 [15  4 15 15]], 

=11 

=16 

[debug] move action_id=33, action=((0, 3), (0, 3)), 
[debug] current_player=0 (R), 
[debug] board[(0, 3)]=11, board[(0, 3)]=11, 
[debug] board state:
[[13  8 15 11]
 [15 15  6  8]
 [10 15 15 15]
 [ 9 15 15 15]
 [15 15 15 15]
 [15 15 15 15]
 [15 15 15 15]
 [15  4 15 15]], 

=11 

=16 

=12 c8 c8

[debug] move action_id=22, action=((0, 2), (0, 2)), 
[debug] current_player=1 (B), 
[debug] board[(0, 2)]=12, board[(0, 2)]=12, 
[debug] board state:
[[13  8 12 11]
 [15 15  6  8]
 [10 15 15 15]
 [ 9 15 15 15]
 [15 15 15 15]
 [15 15 15 15]
 [15 15 15 15]
 [15  4 15 15]], 

=11 

=16 

[debug] move action_id=44, action=((1, 0), (1, 0)), 
[debug] current_player=0 (R), 
[debug] board[(1, 0)]=13, board[(1, 0)]=13, 
[debug] board state:
[[13  8 12 11]
 [13 15  6  8]
 [10 15 15 15]
 [ 9 15 15 15]
 [15 15 15 15]
 [15 15 15 15]
 [15 15 15 15]
 [15  4 15 15]], 

=11 

=16 

=12 c6 c6

[debug] move action_id=110, action=((2, 2), (2, 2)), 
[debug] current_player=1 (B), 
[debug] board[(2, 2)]=3, board[(2, 2)]=3, 
[debug] board state:
[[13  8 12 11]
 [13 15  6  8]
 [10 15  3 15]
 [ 9 15 15 15]
 [15 15 15 15]
 [15 15 15 15]
 [15 15 15 15]
 [15  4 15 15]], 

=11 

=16 

[debug] move action_id=55, action=((1, 1), (1, 1)), 
[debug] current_player=0 (R), 
[debug] board[(1, 1)]=4, board[(1, 1)]=4, 
[debug] board state:
[[13  8 12 11]
 [13  4  6  8]
 [10 15  3 15]
 [ 9 15 15 15]
 [15 15 15 15]
 [15 15 15 15]
 [15 15 15 15]
 [15  4 15 15]], 

=11 

=16 

=12 c5 c5

[debug] move action_id=154, action=((3, 2), (3, 2)), 
[debug] current_player=1 (B), 
[debug] board[(3, 2)]=13, board[(3, 2)]=13, 
[debug] board state:
[[13  8 12 11]
 [13  4  6  8]
 [10 15  3 15]
 [ 9 15 13 15]
 [15 15 15 15]
 [15 15 15 15]
 [15 15 15 15]
 [15  4 15 15]], 

=11 

=16 

[debug] move action_id=99, action=((2, 1), (2, 1)), 
[debug] current_player=0 (R), 
[debug] board[(2, 1)]=6, board[(2, 1)]=6, 
[debug] board state:
[[13  8 12 11]
 [13  4  6  8]
 [10  6  3 15]
 [ 9 15 13 15]
 [15 15 15 15]
 [15 15 15 15]
 [15 15 15 15]
 [15  4 15 15]], 

=11 

=16 

=12 a3 a3

[debug] move action_id=220, action=((5, 0), (5, 0)), 
[debug] current_player=1 (B), 
[debug] board[(5, 0)]=13, board[(5, 0)]=13, 
[debug] board state:
[[13  8 12 11]
 [13  4  6  8]
 [10  6  3 15]
 [ 9 15 13 15]
 [15 15 15 15]
 [13 15 15 15]
 [15 15 15 15]
 [15  4 15 15]], 

=11 

=16 

[debug] move action_id=87, action=((1, 3), (1, 2)), 
[debug] current_player=0 (R), 
[debug] board[(1, 3)]=14, board[(1, 2)]=8, 
[debug] board state:
[[13  8 12 11]
 [13  4  8 14]
 [10  6  3 15]
 [ 9 15 13 15]
 [15 15 15 15]
 [13 15 15 15]
 [15 15 15 15]
 [15  4 15 15]], 

=10 

=16 

=12 c3 c3

[debug] move action_id=242, action=((5, 2), (5, 2)), 
[debug] current_player=1 (B), 
[debug] board[(5, 2)]=6, board[(5, 2)]=6, 
[debug] board state:
[[13  8 12 11]
 [13  4  8 14]
 [10  6  3 15]
 [ 9 15 13 15]
 [15 15 15 15]
 [13 15  6 15]
 [15 15 15 15]
 [15  4 15 15]], 

=11 

=16 

[debug] move action_id=75, action=((1, 2), (1, 1)), 
[debug] current_player=0 (R), 
[debug] board[(1, 2)]=14, board[(1, 1)]=8, 
[debug] board state:
[[13  8 12 11]
 [13  8 14 14]
 [10  6  3 15]
 [ 9 15 13 15]
 [15 15 15 15]
 [13 15  6 15]
 [15 15 15 15]
 [15  4 15 15]], 

=10 

=16 

=12 c6 c7

[debug] move action_id=68, action=((2, 2), (1, 2)), 
[debug] current_player=1 (B), 
[debug] board[(2, 2)]=14, board[(1, 2)]=3, 
[debug] board state:
[[13  8 12 11]
 [13  8  3 14]
 [10  6 14 15]
 [ 9 15 13 15]
 [15 15 15 15]
 [13 15  6 15]
 [15 15 15 15]
 [15  4 15 15]], 

=10 

=16 

[debug] move action_id=64, action=((1, 1), (1, 2)), 
[debug] current_player=0 (R), 
[debug] board[(1, 1)]=14, board[(1, 2)]=8, 
[debug] board state:
[[13  8 12 11]
 [13 14  8 14]
 [10  6 14 15]
 [ 9 15 13 15]
 [15 15 15 15]
 [13 15  6 15]
 [15 15 15 15]
 [15  4 15 15]], 

=10 

=16 

=12 c2 c2

[debug] move action_id=286, action=((6, 2), (6, 2)), 
[debug] current_player=1 (B), 
[debug] board[(6, 2)]=9, board[(6, 2)]=9, 
[debug] board state:
[[13  8 12 11]
 [13 14  8 14]
 [10  6 14 15]
 [ 9 15 13 15]
 [15 15 15 15]
 [13 15  6 15]
 [15 15  9 15]
 [15  4 15 15]], 

=11 

=16 

[debug] move action_id=52, action=((1, 0), (1, 1)), 
[debug] current_player=0 (R), 
[debug] board[(1, 0)]=14, board[(1, 1)]=13, 
[debug] board state:
[[13  8 12 11]
 [14 13  8 14]
 [10  6 14 15]
 [ 9 15 13 15]
 [15 15 15 15]
 [13 15  6 15]
 [15 15  9 15]
 [15  4 15 15]], 

=10 

=16 

=12 d1 d1

[debug] move action_id=341, action=((7, 3), (7, 3)), 
[debug] current_player=1 (B), 
[debug] board[(7, 3)]=5, board[(7, 3)]=5, 
[debug] board state:
[[13  8 12 11]
 [14 13  8 14]
 [10  6 14 15]
 [ 9 15 13 15]
 [15 15 15 15]
 [13 15  6 15]
 [15 15  9 15]
 [15  4 15  5]], 

=11 

=16 

[debug] move action_id=45, action=((0, 0), (1, 0)), 
[debug] current_player=0 (R), 
[debug] board[(0, 0)]=14, board[(1, 0)]=13, 
[debug] board state:
[[14  8 12 11]
 [13 13  8 14]
 [10  6 14 15]
 [ 9 15 13 15]
 [15 15 15 15]
 [13 15  6 15]
 [15 15  9 15]
 [15  4 15  5]], 

=10 

=16 

=12 a4 a4

[debug] move action_id=176, action=((4, 0), (4, 0)), 
[debug] current_player=1 (B), 
[debug] board[(4, 0)]=2, board[(4, 0)]=2, 
[debug] board state:
[[14  8 12 11]
 [13 13  8 14]
 [10  6 14 15]
 [ 9 15 13 15]
 [ 2 15 15 15]
 [13 15  6 15]
 [15 15  9 15]
 [15  4 15  5]], 

=11 

=16 

[debug] move action_id=1, action=((1, 0), (0, 0)), 
[debug] current_player=0 (R), 
[debug] board[(1, 0)]=14, board[(0, 0)]=13, 
[debug] board state:
[[13  8 12 11]
 [14 13  8 14]
 [10  6 14 15]
 [ 9 15 13 15]
 [ 2 15 15 15]
 [13 15  6 15]
 [15 15  9 15]
 [15  4 15  5]], 

=10 

=16 

=12 d4 d4

[debug] move action_id=209, action=((4, 3), (4, 3)), 
[debug] current_player=1 (B), 
[debug] board[(4, 3)]=13, board[(4, 3)]=13, 
[debug] board state:
[[13  8 12 11]
 [14 13  8 14]
 [10  6 14 15]
 [ 9 15 13 15]
 [ 2 15 15 13]
 [13 15  6 15]
 [15 15  9 15]
 [15  4 15  5]], 

=11 

=16 

[debug] move action_id=45, action=((0, 0), (1, 0)), 
[debug] current_player=0 (R), 
[debug] board[(0, 0)]=14, board[(1, 0)]=13, 
[debug] board state:
[[14  8 12 11]
 [13 13  8 14]
 [10  6 14 15]
 [ 9 15 13 15]
 [ 2 15 15 13]
 [13 15  6 15]
 [15 15  9 15]
 [15  4 15  5]], 

=10 

=16 

=12 d6 d6

[debug] move action_id=121, action=((2, 3), (2, 3)), 
[debug] current_player=1 (B), 
[debug] board[(2, 3)]=10, board[(2, 3)]=10, 
[debug] board state:
[[14  8 12 11]
 [13 13  8 14]
 [10  6 14 10]
 [ 9 15 13 15]
 [ 2 15 15 13]
 [13 15  6 15]
 [15 15  9 15]
 [15  4 15  5]], 

=11 

=16 

[debug] move action_id=1, action=((1, 0), (0, 0)), 
[debug] current_player=0 (R), 
[debug] board[(1, 0)]=14, board[(0, 0)]=13, 
[debug] board state:
[[13  8 12 11]
 [14 13  8 14]
 [10  6 14 10]
 [ 9 15 13 15]
 [ 2 15 15 13]
 [13 15  6 15]
 [15 15  9 15]
 [15  4 15  5]], 

=10 

=16 

=12 b2 b2

[debug] move action_id=275, action=((6, 1), (6, 1)), 
[debug] current_player=1 (B), 
[debug] board[(6, 1)]=2, board[(6, 1)]=2, 
[debug] board state:
[[13  8 12 11]
 [14 13  8 14]
 [10  6 14 10]
 [ 9 15 13 15]
 [ 2 15 15 13]
 [13 15  6 15]
 [15  2  9 15]
 [15  4 15  5]], 

=11 

=16 

[debug] move action_id=63, action=((1, 1), (1, 0)), 
[debug] current_player=0 (R), 
[debug] board[(1, 1)]=14, board[(1, 0)]=13, 
[debug] board state:
[[13  8 12 11]
 [13 14  8 14]
 [10  6 14 10]
 [ 9 15 13 15]
 [ 2 15 15 13]
 [13 15  6 15]
 [15  2  9 15]
 [15  4 15  5]], 

=10 

=16 

=12 b3 b3

[debug] move action_id=231, action=((5, 1), (5, 1)), 
[debug] current_player=1 (B), 
[debug] board[(5, 1)]=5, board[(5, 1)]=5, 
[debug] board state:
[[13  8 12 11]
 [13 14  8 14]
 [10  6 14 10]
 [ 9 15 13 15]
 [ 2 15 15 13]
 [13  5  6 15]
 [15  2  9 15]
 [15  4 15  5]], 

=11 

=16 

[debug] move action_id=56, action=((0, 1), (1, 1)), 
[debug] current_player=0 (R), 
[debug] board[(0, 1)]=14, board[(1, 1)]=8, 
[debug] board state:
[[13 14 12 11]
 [13  8  8 14]
 [10  6 14 10]
 [ 9 15 13 15]
 [ 2 15 15 13]
 [13  5  6 15]
 [15  2  9 15]
 [15  4 15  5]], 

=10 

=16 

=12 b4 b4

[debug] move action_id=187, action=((4, 1), (4, 1)), 
[debug] current_player=1 (B), 
[debug] board[(4, 1)]=3, board[(4, 1)]=3, 
[debug] board state:
[[13 14 12 11]
 [13  8  8 14]
 [10  6 14 10]
 [ 9 15 13 15]
 [ 2  3 15 13]
 [13  5  6 15]
 [15  2  9 15]
 [15  4 15  5]], 

=11 

=16 

[debug] move action_id=76, action=((1, 2), (1, 3)), 
[debug] current_player=0 (R), 
[debug] board[(1, 2)]=14, board[(1, 3)]=8, 
[debug] board state:
[[13 14 12 11]
 [13  8 14  8]
 [10  6 14 10]
 [ 9 15 13 15]
 [ 2  3 15 13]
 [13  5  6 15]
 [15  2  9 15]
 [15  4 15  5]], 

=10 

=16 

=12 c4 c4

[debug] move action_id=198, action=((4, 2), (4, 2)), 
[debug] current_player=1 (B), 
[debug] board[(4, 2)]=0, board[(4, 2)]=0, 
[debug] board state:
[[13 14 12 11]
 [13  8 14  8]
 [10  6 14 10]
 [ 9 15 13 15]
 [ 2  3  0 13]
 [13  5  6 15]
 [15  2  9 15]
 [15  4 15  5]], 

=11 

=16 

[debug] move action_id=8, action=((0, 0), (0, 1)), 
[debug] current_player=0 (R), 
[debug] board[(0, 0)]=14, board[(0, 1)]=13, 
[debug] board state:
[[14 13 12 11]
 [13  8 14  8]
 [10  6 14 10]
 [ 9 15 13 15]
 [ 2  3  0 13]
 [13  5  6 15]
 [15  2  9 15]
 [15  4 15  5]], 

=10 

=16 

=12 d2 d2

[debug] move action_id=297, action=((6, 3), (6, 3)), 
[debug] current_player=1 (B), 
[debug] board[(6, 3)]=6, board[(6, 3)]=6, 
[debug] board state:
[[14 13 12 11]
 [13  8 14  8]
 [10  6 14 10]
 [ 9 15 13 15]
 [ 2  3  0 13]
 [13  5  6 15]
 [15  2  9  6]
 [15  4 15  5]], 

=11 

=16 

[debug] move action_id=64, action=((1, 1), (1, 2)), 
[debug] current_player=0 (R), 
[debug] board[(1, 1)]=14, board[(1, 2)]=8, 
[debug] board state:
[[14 13 12 11]
 [13 14  8  8]
 [10  6 14 10]
 [ 9 15 13 15]
 [ 2  3  0 13]
 [13  5  6 15]
 [15  2  9  6]
 [15  4 15  5]], 

=10 

=16 

=12 a4 a3

[debug] move action_id=225, action=((4, 0), (5, 0)), 
[debug] current_player=1 (B), 
[debug] board[(4, 0)]=14, board[(5, 0)]=2, 
[debug] board state:
[[14 13 12 11]
 [13 14  8  8]
 [10  6 14 10]
 [ 9 15 13 15]
 [14  3  0 13]
 [ 2  5  6 15]
 [15  2  9  6]
 [15  4 15  5]], 

=10 

=16 

[debug] move action_id=1, action=((1, 0), (0, 0)), 
[debug] current_player=0 (R), 
[debug] board[(1, 0)]=14, board[(0, 0)]=13, 
[debug] board state:
[[13 13 12 11]
 [14 14  8  8]
 [10  6 14 10]
 [ 9 15 13 15]
 [14  3  0 13]
 [ 2  5  6 15]
 [15  2  9  6]
 [15  4 15  5]], 

=10 

=16 

=12 b6 c6

[debug] move action_id=108, action=((2, 1), (2, 2)), 
[debug] current_player=1 (B), 
[debug] board[(2, 1)]=14, board[(2, 2)]=6, 
[debug] board state:
[[13 13 12 11]
 [14 14  8  8]
 [10 14  6 10]
 [ 9 15 13 15]
 [14  3  0 13]
 [ 2  5  6 15]
 [15  2  9  6]
 [15  4 15  5]], 

=10 

=16 

[debug] move action_id=46, action=((2, 0), (1, 0)), 
[debug] current_player=0 (R), 
[debug] board[(2, 0)]=14, board[(1, 0)]=10, 
[debug] board state:
[[13 13 12 11]
 [10 14  8  8]
 [14 14  6 10]
 [ 9 15 13 15]
 [14  3  0 13]
 [ 2  5  6 15]
 [15  2  9  6]
 [15  4 15  5]], 

=10 

=16 

=12 c6 c5

[debug] move action_id=157, action=((2, 2), (3, 2)), 
[debug] current_player=1 (B), 
[debug] board[(2, 2)]=14, board[(3, 2)]=6, 
[debug] board state:
[[13 13 12 11]
 [10 14  8  8]
 [14 14 14 10]
 [ 9 15  6 15]
 [14  3  0 13]
 [ 2  5  6 15]
 [15  2  9  6]
 [15  4 15  5]], 

=10 

=16 

[debug] move action_id=52, action=((1, 0), (1, 1)), 
[debug] current_player=0 (R), 
[debug] board[(1, 0)]=14, board[(1, 1)]=10, 
[debug] board state:
[[13 13 12 11]
 [14 10  8  8]
 [14 14 14 10]
 [ 9 15  6 15]
 [14  3  0 13]
 [ 2  5  6 15]
 [15  2  9  6]
 [15  4 15  5]], 

=10 

=16 

=12 c1 c1

[debug] move action_id=330, action=((7, 2), (7, 2)), 
[debug] current_player=1 (B), 
[debug] board[(7, 2)]=1, board[(7, 2)]=1, 
[debug] board state:
[[13 13 12 11]
 [14 10  8  8]
 [14 14 14 10]
 [ 9 15  6 15]
 [14  3  0 13]
 [ 2  5  6 15]
 [15  2  9  6]
 [15  4  1  5]], 

=11 

=16 

[debug] move action_id=45, action=((0, 0), (1, 0)), 
[debug] current_player=0 (R), 
[debug] board[(0, 0)]=14, board[(1, 0)]=13, 
[debug] board state:
[[14 13 12 11]
 [13 10  8  8]
 [14 14 14 10]
 [ 9 15  6 15]
 [14  3  0 13]
 [ 2  5  6 15]
 [15  2  9  6]
 [15  4  1  5]], 

=10 

=16 

=12 a1 a1

[debug] move action_id=308, action=((7, 0), (7, 0)), 
[debug] current_player=1 (B), 
[debug] board[(7, 0)]=1, board[(7, 0)]=1, 
[debug] board state:
[[14 13 12 11]
 [13 10  8  8]
 [14 14 14 10]
 [ 9 15  6 15]
 [14  3  0 13]
 [ 2  5  6 15]
 [15  2  9  6]
 [ 1  4  1  5]], 

=11 

=16 

[debug] move action_id=1, action=((1, 0), (0, 0)), 
[debug] current_player=0 (R), 
[debug] board[(1, 0)]=14, board[(0, 0)]=13, 
[debug] board state:
[[13 13 12 11]
 [14 10  8  8]
 [14 14 14 10]
 [ 9 15  6 15]
 [14  3  0 13]
 [ 2  5  6 15]
 [15  2  9  6]
 [ 1  4  1  5]], 

=10 

=16 

=12 d3 d3

[debug] move action_id=253, action=((5, 3), (5, 3)), 
[debug] current_player=1 (B), 
[debug] board[(5, 3)]=11, board[(5, 3)]=11, 
[debug] board state:
[[13 13 12 11]
 [14 10  8  8]
 [14 14 14 10]
 [ 9 15  6 15]
 [14  3  0 13]
 [ 2  5  6 11]
 [15  2  9  6]
 [ 1  4  1  5]], 

=11 

=16 

[debug] move action_id=45, action=((0, 0), (1, 0)), 
[debug] current_player=0 (R), 
[debug] board[(0, 0)]=14, board[(1, 0)]=13, 
[debug] board state:
[[14 13 12 11]
 [13 10  8  8]
 [14 14 14 10]
 [ 9 15  6 15]
 [14  3  0 13]
 [ 2  5  6 11]
 [15  2  9  6]
 [ 1  4  1  5]], 

=10 

=16 

=12 a2 a2

[debug] move action_id=264, action=((6, 0), (6, 0)), 
[debug] current_player=1 (B), 
[debug] board[(6, 0)]=6, board[(6, 0)]=6, 
[debug] board state:
[[14 13 12 11]
 [13 10  8  8]
 [14 14 14 10]
 [ 9 15  6 15]
 [14  3  0 13]
 [ 2  5  6 11]
 [ 6  2  9  6]
 [ 1  4  1  5]], 

=11 

=16 

[debug] move action_id=1, action=((1, 0), (0, 0)), 
[debug] current_player=0 (R), 
[debug] board[(1, 0)]=14, board[(0, 0)]=13, 
[debug] board state:
[[13 13 12 11]
 [14 10  8  8]
 [14 14 14 10]
 [ 9 15  6 15]
 [14  3  0 13]
 [ 2  5  6 11]
 [ 6  2  9  6]
 [ 1  4  1  5]], 

=10 

=16 

=12 d5 d5

[debug] move action_id=165, action=((3, 3), (3, 3)), 
[debug] current_player=1 (B), 
[debug] board[(3, 3)]=12, board[(3, 3)]=12, 
[debug] board state:
[[13 13 12 11]
 [14 10  8  8]
 [14 14 14 10]
 [ 9 15  6 12]
 [14  3  0 13]
 [ 2  5  6 11]
 [ 6  2  9  6]
 [ 1  4  1  5]], 

=11 

=16 

[debug] move action_id=45, action=((0, 0), (1, 0)), 
[debug] current_player=0 (R), 
[debug] board[(0, 0)]=14, board[(1, 0)]=13, 
[debug] board state:
[[14 13 12 11]
 [13 10  8  8]
 [14 14 14 10]
 [ 9 15  6 12]
 [14  3  0 13]
 [ 2  5  6 11]
 [ 6  2  9  6]
 [ 1  4  1  5]], 

=10 

=16 

=12 c5 c6

[debug] move action_id=113, action=((3, 2), (2, 2)), 
[debug] current_player=1 (B), 
[debug] board[(3, 2)]=14, board[(2, 2)]=6, 
[debug] board state:
[[14 13 12 11]
 [13 10  8  8]
 [14 14  6 10]
 [ 9 15 14 12]
 [14  3  0 13]
 [ 2  5  6 11]
 [ 6  2  9  6]
 [ 1  4  1  5]], 

=10 

=16 

[debug] move action_id=1, action=((1, 0), (0, 0)), 
[debug] current_player=0 (R), 
[debug] board[(1, 0)]=14, board[(0, 0)]=13, 
[debug] board state:
[[13 13 12 11]
 [14 10  8  8]
 [14 14  6 10]
 [ 9 15 14 12]
 [14  3  0 13]
 [ 2  5  6 11]
 [ 6  2  9  6]
 [ 1  4  1  5]], 

=10 

=16 

=12 c6 b6

[debug] move action_id=119, action=((2, 2), (2, 1)), 
[debug] current_player=1 (B), 
[debug] board[(2, 2)]=14, board[(2, 1)]=6, 
[debug] board state:
[[13 13 12 11]
 [14 10  8  8]
 [14  6 14 10]
 [ 9 15 14 12]
 [14  3  0 13]
 [ 2  5  6 11]
 [ 6  2  9  6]
 [ 1  4  1  5]], 

=10 

=16 

[debug] move action_id=101, action=((1, 1), (2, 1)), 
