INITIAL
* 5:43pm Feb 22, 2026
* a1_stmu vs a0_mu
* 1 2 2 2 2 2 5 1 2 2 2 2 2 5
* X X X X
* X X X X
* X X X X
* X X X X
* X X X X
* X X X X
* X X X X
* X X X X
* first 1
* time 900
* 1. a6(p) b1(n)
* 2. b8(R) c7(P)
* 3. a8(N) c6(m)
* 4. c1(p) d8(g)
* 5. c8(c) d7(r)
* 6. c8-a8 a5(N)
* 7. a7(g) c5(M)
* 8. d8-c8 a3(P)
* 9. c8-b8 b6(K)
* 10. b8-c8 c4(P)
* 11. a8-b8 b3(C)
* 12. a7-a8 d4(p)
* 13. c8-d8 c3(P)
* 14. b8-c8 c2(R)
* 15. a6-a7 d1(p)
* 16. a8-b8 a4(C)
* 17. a7-a8 a1(G)
* 18. a8-a7 b4(M)
* 19. a7-a8 a2(m)
* 20. a8-a7 a1-a2
* 21. b7(k) a2-a1
* 22. d7-c7 d5(n)
* 23. a7-a8 d3(c)
* 24. a8-a7 a1-a2
* 25. a7-a8 a2-a1
* 26. c7-d7 d2(p)
* 27. b7-c7 b6-c6
* 28. a8-a7 a1-a2
* 29. a7-a8 a2-a1
* 30. a8-a7 c5-d5
* 31. b8-a8 a1-a2
* 32. c8-b8 c6-c5
* 33. c7-c8 c4-d4
* 34. b8-b7 d4-c4
* 35. a8-b8 c4-d4
* 36. b8-a8 d4-c4
* 37. a8-b8 c4-d4
* 38. a7-a8 d4-c4
* 39. a8-a7 c4-d4
* 40. b7-c7 d4-c4
* 41. b8-b7 c4-d4
* 42. a7-a8 b2(P)
* 43. a8-b8 a2-a1
* 44. b8-a8 a1-a2
* 45. b7-a7 a2-a1
* 46. a7-b7 a1-a2
* 47. c8-b8 a2-a1
* 48. b8-c8 a1-a2
* 49. a8-b8 a2-a1
* 50. b8-a8 a1-a2
* 51. b7-b8 a2-a1
* 52. a8-a7 a1-a2
* 53. a7-a8 a2-a1
* 54. a8-a7 a1-a2
* 55. b8-b7 c5-c4
* 56. a7-a8 a2-a1
* 57. b7-b8 a1-a2
* 58. a8-a7 a2-a1
* 59. b8-a8 a1-a2
* 60. a8-b8 a2-a1
* 61. a7-a8 a1-a2
* 62. a8-a7 a2-a1
* 63. a7-a8 a1-a2
* 64. a8-a7 a2-a1
* 65. a7-a8 a1-a2
* 66. a8-a7
* PositionRepetitionDraw,3,4 a1_stmu Draw 0.500000,0.500000
* Comment 0 0
0. 1771753393960
1. 1771753393960
2. 1771753396047
3. 1771753398007
4. 1771753399904
5. 1771753401864
6. 1771753403761
7. 1771753405722
8. 1771753407617
9. 1771753409579
10. 1771753411524
11. 1771753413487
12. 1771753415431
13. 1771753417344
14. 1771753419289
15. 1771753421251
16. 1771753423147
17. 1771753425108
18. 1771753427004
19. 1771753428966
20. 1771753430912
21. 1771753432874
22. 1771753434820
23. 1771753436783
24. 1771753438726
25. 1771753440690
26. 1771753442634
27. 1771753444546
28. 1771753446446
29. 1771753448404
30. 1771753450302
31. 1771753452261
32. 1771753454159
33. 1771753456119
34. 1771753458017
35. 1771753459977
36. 1771753461874
37. 1771753463834
38. 1771753465731
39. 1771753467693
40. 1771753469638
41. 1771753471600
42. 1771753473496
43. 1771753475457
44. 1771753477353
45. 1771753479314
46. 1771753481210
47. 1771753483121
48. 1771753485017
49. 1771753486978
50. 1771753488875
51. 1771753490835
52. 1771753492732
53. 1771753494692
54. 1771753496540
55. 1771753498449
56. 1771753500347
57. 1771753502307
58. 1771753504204
59. 1771753506114
60. 1771753508012
61. 1771753509922
62. 1771753511819
63. 1771753513728
64. 1771753515576
65. 1771753517487
66. 1771753519335
67. 1771753521193
68. 1771753523041
69. 1771753524901
70. 1771753526747
71. 1771753528657
72. 1771753530505
73. 1771753532413
74. 1771753534265
75. 1771753536170
76. 1771753538022
77. 1771753539926
78. 1771753541781
79. 1771753543683
80. 1771753545539
81. 1771753547390
82. 1771753549248
83. 1771753551146
84. 1771753553004
85. 1771753554902
86. 1771753556762
87. 1771753558659
88. 1771753560517
89. 1771753562416
90. 1771753564273
91. 1771753566172
92. 1771753568032
93. 1771753569928
94. 1771753571789
95. 1771753573686
96. 1771753575547
97. 1771753577444
98. 1771753579305
99. 1771753581201
100. 1771753583063
101. 1771753584960
102. 1771753586821
103. 1771753588717
104. 1771753590579
105. 1771753592474
106. 1771753594336
107. 1771753596283
108. 1771753598144
109. 1771753600041
110. 1771753601901
111. 1771753603801
112. 1771753605656
113. 1771753607559
114. 1771753609411
115. 1771753611316
116. 1771753613168
117. 1771753615076
118. 1771753616925
119. 1771753618833
120. 1771753620683
121. 1771753622590
122. 1771753624440
123. 1771753626347
124. 1771753628197
125. 1771753630104
126. 1771753631953
127. 1771753633859
128. 1771753635710
129. 1771753637565
130. 1771753639417
131. 1771753641322

# 10 27 29 63 65 99 101 135 137 171 173 207 209 243 245 279 281 315 317 351 353 387 389 423 425 459 461 495 497 531 533 567 569 603 605 639 641 675 677 711 713 747 749 783 785 819 821 855 857 891 893 927 929 963 965 999 1001 1035 1037 1071 1073 1107 1109 1143 1145 1179 1181 1215 1217 1251 1253 1287 1289 1323 1325 1359 1361 1395 1397 1431 1433 1467 1469 1503 1505 1539 1541 1575 1577 1611 1613 1647 1649 1683 1685 1719 1721 1755 1757 1791 1793 1827 1829 1863 1865 1899 1901 1935 1937 1971 1973 2007 2009 2043 2045 2079 2081 2115 2117 2151 2153 2187 2189 2223 2225 2259 2261 2295 2297 2331 2333 #
LightZero MGTP Interface Ready
=1 LightZero_DarkChess

=2 1.0.0

=7 

=15 

=14 

[debug] move action_id=88, action=((2, 0), (2, 0)), 
[debug] current_player=1 (R), 
[debug] board[(2, 0)]=13, board[(2, 0)]=13, 
[debug] board state:
[[15 15 15 15]
 [15 15 15 15]
 [13 15 15 15]
 [15 15 15 15]
 [15 15 15 15]
 [15 15 15 15]
 [15 15 15 15]
 [15 15 15 15]], 

=11 

=16 

=12 b1 b1

[debug] move action_id=319, action=((7, 1), (7, 1)), 
[debug] current_player=0 (B), 
[debug] board[(7, 1)]=11, board[(7, 1)]=11, 
[debug] board state:
[[15 15 15 15]
 [15 15 15 15]
 [13 15 15 15]
 [15 15 15 15]
 [15 15 15 15]
 [15 15 15 15]
 [15 15 15 15]
 [15 11 15 15]], 

=11 

=16 

[debug] move action_id=11, action=((0, 1), (0, 1)), 
[debug] current_player=1 (R), 
[debug] board[(0, 1)]=3, board[(0, 1)]=3, 
[debug] board state:
[[15  3 15 15]
 [15 15 15 15]
 [13 15 15 15]
 [15 15 15 15]
 [15 15 15 15]
 [15 15 15 15]
 [15 15 15 15]
 [15 11 15 15]], 

=11 

=16 

=12 c7 c7

[debug] move action_id=66, action=((1, 2), (1, 2)), 
[debug] current_player=0 (B), 
[debug] board[(1, 2)]=6, board[(1, 2)]=6, 
[debug] board state:
[[15  3 15 15]
 [15 15  6 15]
 [13 15 15 15]
 [15 15 15 15]
 [15 15 15 15]
 [15 15 15 15]
 [15 15 15 15]
 [15 11 15 15]], 

=11 

=16 

[debug] move action_id=0, action=((0, 0), (0, 0)), 
[debug] current_player=1 (R), 
[debug] board[(0, 0)]=4, board[(0, 0)]=4, 
[debug] board state:
[[ 4  3 15 15]
 [15 15  6 15]
 [13 15 15 15]
 [15 15 15 15]
 [15 15 15 15]
 [15 15 15 15]
 [15 15 15 15]
 [15 11 15 15]], 

=11 

=16 

=12 c6 c6

[debug] move action_id=110, action=((2, 2), (2, 2)), 
[debug] current_player=0 (B), 
[debug] board[(2, 2)]=9, board[(2, 2)]=9, 
[debug] board state:
[[ 4  3 15 15]
 [15 15  6 15]
 [13 15  9 15]
 [15 15 15 15]
 [15 15 15 15]
 [15 15 15 15]
 [15 15 15 15]
 [15 11 15 15]], 

=11 

=16 

[debug] move action_id=330, action=((7, 2), (7, 2)), 
[debug] current_player=1 (R), 
[debug] board[(7, 2)]=13, board[(7, 2)]=13, 
[debug] board state:
[[ 4  3 15 15]
 [15 15  6 15]
 [13 15  9 15]
 [15 15 15 15]
 [15 15 15 15]
 [15 15 15 15]
 [15 15 15 15]
 [15 11 13 15]], 

=11 

=16 

=12 d8 d8

[debug] move action_id=33, action=((0, 3), (0, 3)), 
[debug] current_player=0 (B), 
[debug] board[(0, 3)]=8, board[(0, 3)]=8, 
[debug] board state:
[[ 4  3 15  8]
 [15 15  6 15]
 [13 15  9 15]
 [15 15 15 15]
 [15 15 15 15]
 [15 15 15 15]
 [15 15 15 15]
 [15 11 13 15]], 

=11 

=16 

[debug] move action_id=22, action=((0, 2), (0, 2)), 
[debug] current_player=1 (R), 
[debug] board[(0, 2)]=12, board[(0, 2)]=12, 
[debug] board state:
[[ 4  3 12  8]
 [15 15  6 15]
 [13 15  9 15]
 [15 15 15 15]
 [15 15 15 15]
 [15 15 15 15]
 [15 15 15 15]
 [15 11 13 15]], 

=11 

=16 

=12 d7 d7

[debug] move action_id=77, action=((1, 3), (1, 3)), 
[debug] current_player=0 (B), 
[debug] board[(1, 3)]=10, board[(1, 3)]=10, 
[debug] board state:
[[ 4  3 12  8]
 [15 15  6 10]
 [13 15  9 15]
 [15 15 15 15]
 [15 15 15 15]
 [15 15 15 15]
 [15 15 15 15]
 [15 11 13 15]], 

=11 

=16 

[debug] move action_id=30, action=((0, 2), (0, 0)), 
[debug] current_player=1 (R), 
[debug] board[(0, 2)]=14, board[(0, 0)]=12, 
[debug] board state:
[[12  3 14  8]
 [15 15  6 10]
 [13 15  9 15]
 [15 15 15 15]
 [15 15 15 15]
 [15 15 15 15]
 [15 15 15 15]
 [15 11 13 15]], 

=10 

=16 

=12 a5 a5

[debug] move action_id=132, action=((3, 0), (3, 0)), 
[debug] current_player=0 (B), 
[debug] board[(3, 0)]=4, board[(3, 0)]=4, 
[debug] board state:
[[12  3 14  8]
 [15 15  6 10]
 [13 15  9 15]
 [ 4 15 15 15]
 [15 15 15 15]
 [15 15 15 15]
 [15 15 15 15]
 [15 11 13 15]], 

=11 

=16 

[debug] move action_id=44, action=((1, 0), (1, 0)), 
[debug] current_player=1 (R), 
[debug] board[(1, 0)]=8, board[(1, 0)]=8, 
[debug] board state:
[[12  3 14  8]
 [ 8 15  6 10]
 [13 15  9 15]
 [ 4 15 15 15]
 [15 15 15 15]
 [15 15 15 15]
 [15 15 15 15]
 [15 11 13 15]], 

=11 

=16 

=12 c5 c5

[debug] move action_id=154, action=((3, 2), (3, 2)), 
[debug] current_player=0 (B), 
[debug] board[(3, 2)]=2, board[(3, 2)]=2, 
[debug] board state:
[[12  3 14  8]
 [ 8 15  6 10]
 [13 15  9 15]
 [ 4 15  2 15]
 [15 15 15 15]
 [15 15 15 15]
 [15 15 15 15]
 [15 11 13 15]], 

=11 

=16 

[debug] move action_id=43, action=((0, 3), (0, 2)), 
[debug] current_player=1 (R), 
[debug] board[(0, 3)]=14, board[(0, 2)]=8, 
[debug] board state:
[[12  3  8 14]
 [ 8 15  6 10]
 [13 15  9 15]
 [ 4 15  2 15]
 [15 15 15 15]
 [15 15 15 15]
 [15 15 15 15]
 [15 11 13 15]], 

=10 

=16 

=12 a3 a3

[debug] move action_id=220, action=((5, 0), (5, 0)), 
[debug] current_player=0 (B), 
[debug] board[(5, 0)]=6, board[(5, 0)]=6, 
[debug] board state:
[[12  3  8 14]
 [ 8 15  6 10]
 [13 15  9 15]
 [ 4 15  2 15]
 [15 15 15 15]
 [ 6 15 15 15]
 [15 15 15 15]
 [15 11 13 15]], 

=11 

=16 

[debug] move action_id=31, action=((0, 2), (0, 1)), 
[debug] current_player=1 (R), 
[debug] board[(0, 2)]=14, board[(0, 1)]=8, 
[debug] board state:
[[12  8 14 14]
 [ 8 15  6 10]
 [13 15  9 15]
 [ 4 15  2 15]
 [15 15 15 15]
 [ 6 15 15 15]
 [15 15 15 15]
 [15 11 13 15]], 

=10 

=16 

=12 b6 b6

[debug] move action_id=99, action=((2, 1), (2, 1)), 
[debug] current_player=0 (B), 
[debug] board[(2, 1)]=0, board[(2, 1)]=0, 
[debug] board state:
[[12  8 14 14]
 [ 8 15  6 10]
 [13  0  9 15]
 [ 4 15  2 15]
 [15 15 15 15]
 [ 6 15 15 15]
 [15 15 15 15]
 [15 11 13 15]], 

=11 

=16 

[debug] move action_id=20, action=((0, 1), (0, 2)), 
[debug] current_player=1 (R), 
[debug] board[(0, 1)]=14, board[(0, 2)]=8, 
[debug] board state:
[[12 14  8 14]
 [ 8 15  6 10]
 [13  0  9 15]
 [ 4 15  2 15]
 [15 15 15 15]
 [ 6 15 15 15]
 [15 15 15 15]
 [15 11 13 15]], 

=10 

=16 

=12 c4 c4

[debug] move action_id=198, action=((4, 2), (4, 2)), 
[debug] current_player=0 (B), 
[debug] board[(4, 2)]=6, board[(4, 2)]=6, 
[debug] board state:
[[12 14  8 14]
 [ 8 15  6 10]
 [13  0  9 15]
 [ 4 15  2 15]
 [15 15  6 15]
 [ 6 15 15 15]
 [15 15 15 15]
 [15 11 13 15]], 

=11 

=16 

[debug] move action_id=8, action=((0, 0), (0, 1)), 
[debug] current_player=1 (R), 
[debug] board[(0, 0)]=14, board[(0, 1)]=12, 
[debug] board state:
[[14 12  8 14]
 [ 8 15  6 10]
 [13  0  9 15]
 [ 4 15  2 15]
 [15 15  6 15]
 [ 6 15 15 15]
 [15 15 15 15]
 [15 11 13 15]], 

=10 

=16 

=12 b3 b3

[debug] move action_id=231, action=((5, 1), (5, 1)), 
[debug] current_player=0 (B), 
[debug] board[(5, 1)]=5, board[(5, 1)]=5, 
[debug] board state:
[[14 12  8 14]
 [ 8 15  6 10]
 [13  0  9 15]
 [ 4 15  2 15]
 [15 15  6 15]
 [ 6  5 15 15]
 [15 15 15 15]
 [15 11 13 15]], 

=11 

=16 

[debug] move action_id=1, action=((1, 0), (0, 0)), 
[debug] current_player=1 (R), 
[debug] board[(1, 0)]=14, board[(0, 0)]=8, 
[debug] board state:
[[ 8 12  8 14]
 [14 15  6 10]
 [13  0  9 15]
 [ 4 15  2 15]
 [15 15  6 15]
 [ 6  5 15 15]
 [15 15 15 15]
 [15 11 13 15]], 

=10 

=16 

=12 d4 d4

[debug] move action_id=209, action=((4, 3), (4, 3)), 
[debug] current_player=0 (B), 
[debug] board[(4, 3)]=13, board[(4, 3)]=13, 
[debug] board state:
[[ 8 12  8 14]
 [14 15  6 10]
 [13  0  9 15]
 [ 4 15  2 15]
 [15 15  6 13]
 [ 6  5 15 15]
 [15 15 15 15]
 [15 11 13 15]], 

=11 

=16 

[debug] move action_id=32, action=((0, 2), (0, 3)), 
[debug] current_player=1 (R), 
[debug] board[(0, 2)]=14, board[(0, 3)]=8, 
[debug] board state:
[[ 8 12 14  8]
 [14 15  6 10]
 [13  0  9 15]
 [ 4 15  2 15]
 [15 15  6 13]
 [ 6  5 15 15]
 [15 15 15 15]
 [15 11 13 15]], 

=10 

=16 

=12 c3 c3

[debug] move action_id=242, action=((5, 2), (5, 2)), 
[debug] current_player=0 (B), 
[debug] board[(5, 2)]=6, board[(5, 2)]=6, 
[debug] board state:
[[ 8 12 14  8]
 [14 15  6 10]
 [13  0  9 15]
 [ 4 15  2 15]
 [15 15  6 13]
 [ 6  5  6 15]
 [15 15 15 15]
 [15 11 13 15]], 

=11 

=16 

[debug] move action_id=20, action=((0, 1), (0, 2)), 
[debug] current_player=1 (R), 
[debug] board[(0, 1)]=14, board[(0, 2)]=12, 
[debug] board state:
[[ 8 14 12  8]
 [14 15  6 10]
 [13  0  9 15]
 [ 4 15  2 15]
 [15 15  6 13]
 [ 6  5  6 15]
 [15 15 15 15]
 [15 11 13 15]], 

=10 

=16 

=12 c2 c2

[debug] move action_id=286, action=((6, 2), (6, 2)), 
[debug] current_player=0 (B), 
[debug] board[(6, 2)]=3, board[(6, 2)]=3, 
[debug] board state:
[[ 8 14 12  8]
 [14 15  6 10]
 [13  0  9 15]
 [ 4 15  2 15]
 [15 15  6 13]
 [ 6  5  6 15]
 [15 15  3 15]
 [15 11 13 15]], 

=11 

=16 

[debug] move action_id=46, action=((2, 0), (1, 0)), 
[debug] current_player=1 (R), 
[debug] board[(2, 0)]=14, board[(1, 0)]=13, 
[debug] board state:
[[ 8 14 12  8]
 [13 15  6 10]
 [14  0  9 15]
 [ 4 15  2 15]
 [15 15  6 13]
 [ 6  5  6 15]
 [15 15  3 15]
 [15 11 13 15]], 

=10 

=16 

=12 d1 d1

[debug] move action_id=341, action=((7, 3), (7, 3)), 
[debug] current_player=0 (B), 
[debug] board[(7, 3)]=13, board[(7, 3)]=13, 
[debug] board state:
[[ 8 14 12  8]
 [13 15  6 10]
 [14  0  9 15]
 [ 4 15  2 15]
 [15 15  6 13]
 [ 6  5  6 15]
 [15 15  3 15]
 [15 11 13 13]], 

=11 

=16 

[debug] move action_id=8, action=((0, 0), (0, 1)), 
[debug] current_player=1 (R), 
[debug] board[(0, 0)]=14, board[(0, 1)]=8, 
[debug] board state:
[[14  8 12  8]
 [13 15  6 10]
 [14  0  9 15]
 [ 4 15  2 15]
 [15 15  6 13]
 [ 6  5  6 15]
 [15 15  3 15]
 [15 11 13 13]], 

=10 

=16 

=12 a4 a4

[debug] move action_id=176, action=((4, 0), (4, 0)), 
[debug] current_player=0 (B), 
[debug] board[(4, 0)]=5, board[(4, 0)]=5, 
[debug] board state:
[[14  8 12  8]
 [13 15  6 10]
 [14  0  9 15]
 [ 4 15  2 15]
 [ 5 15  6 13]
 [ 6  5  6 15]
 [15 15  3 15]
 [15 11 13 13]], 

=11 

=16 

[debug] move action_id=1, action=((1, 0), (0, 0)), 
[debug] current_player=1 (R), 
[debug] board[(1, 0)]=14, board[(0, 0)]=13, 
[debug] board state:
[[13  8 12  8]
 [14 15  6 10]
 [14  0  9 15]
 [ 4 15  2 15]
 [ 5 15  6 13]
 [ 6  5  6 15]
 [15 15  3 15]
 [15 11 13 13]], 

=10 

=16 

=12 a1 a1

[debug] move action_id=308, action=((7, 0), (7, 0)), 
[debug] current_player=0 (B), 
[debug] board[(7, 0)]=1, board[(7, 0)]=1, 
[debug] board state:
[[13  8 12  8]
 [14 15  6 10]
 [14  0  9 15]
 [ 4 15  2 15]
 [ 5 15  6 13]
 [ 6  5  6 15]
 [15 15  3 15]
 [ 1 11 13 13]], 

=11 

=16 

[debug] move action_id=45, action=((0, 0), (1, 0)), 
[debug] current_player=1 (R), 
[debug] board[(0, 0)]=14, board[(1, 0)]=13, 
[debug] board state:
[[14  8 12  8]
 [13 15  6 10]
 [14  0  9 15]
 [ 4 15  2 15]
 [ 5 15  6 13]
 [ 6  5  6 15]
 [15 15  3 15]
 [ 1 11 13 13]], 

=10 

=16 

=12 b4 b4

[debug] move action_id=187, action=((4, 1), (4, 1)), 
[debug] current_player=0 (B), 
[debug] board[(4, 1)]=2, board[(4, 1)]=2, 
[debug] board state:
[[14  8 12  8]
 [13 15  6 10]
 [14  0  9 15]
 [ 4 15  2 15]
 [ 5  2  6 13]
 [ 6  5  6 15]
 [15 15  3 15]
 [ 1 11 13 13]], 

=11 

=16 

[debug] move action_id=1, action=((1, 0), (0, 0)), 
[debug] current_player=1 (R), 
[debug] board[(1, 0)]=14, board[(0, 0)]=13, 
[debug] board state:
[[13  8 12  8]
 [14 15  6 10]
 [14  0  9 15]
 [ 4 15  2 15]
 [ 5  2  6 13]
 [ 6  5  6 15]
 [15 15  3 15]
 [ 1 11 13 13]], 

=10 

=16 

=12 a2 a2

[debug] move action_id=264, action=((6, 0), (6, 0)), 
[debug] current_player=0 (B), 
[debug] board[(6, 0)]=9, board[(6, 0)]=9, 
[debug] board state:
[[13  8 12  8]
 [14 15  6 10]
 [14  0  9 15]
 [ 4 15  2 15]
 [ 5  2  6 13]
 [ 6  5  6 15]
 [ 9 15  3 15]
 [ 1 11 13 13]], 

=11 

=16 

[debug] move action_id=45, action=((0, 0), (1, 0)), 
[debug] current_player=1 (R), 
[debug] board[(0, 0)]=14, board[(1, 0)]=13, 
[debug] board state:
[[14  8 12  8]
 [13 15  6 10]
 [14  0  9 15]
 [ 4 15  2 15]
 [ 5  2  6 13]
 [ 6  5  6 15]
 [ 9 15  3 15]
 [ 1 11 13 13]], 

=10 

=16 

=12 a1 a2

[debug] move action_id=271, action=((7, 0), (6, 0)), 
[debug] current_player=0 (B), 
[debug] board[(7, 0)]=14, board[(6, 0)]=1, 
[debug] board state:
[[14  8 12  8]
 [13 15  6 10]
 [14  0  9 15]
 [ 4 15  2 15]
 [ 5  2  6 13]
 [ 6  5  6 15]
 [ 1 15  3 15]
 [14 11 13 13]], 

=10 

=16 

[debug] move action_id=55, action=((1, 1), (1, 1)), 
[debug] current_player=1 (R), 
[debug] board[(1, 1)]=7, board[(1, 1)]=7, 
[debug] board state:
[[14  8 12  8]
 [13  7  6 10]
 [14  0  9 15]
 [ 4 15  2 15]
 [ 5  2  6 13]
 [ 6  5  6 15]
 [ 1 15  3 15]
 [14 11 13 13]], 

=11 

=16 

=12 a2 a1

[debug] move action_id=315, action=((6, 0), (7, 0)), 
[debug] current_player=0 (B), 
[debug] board[(6, 0)]=14, board[(7, 0)]=1, 
[debug] board state:
[[14  8 12  8]
 [13  7  6 10]
 [14  0  9 15]
 [ 4 15  2 15]
 [ 5  2  6 13]
 [ 6  5  6 15]
 [14 15  3 15]
 [ 1 11 13 13]], 

=10 

=16 

[debug] move action_id=87, action=((1, 3), (1, 2)), 
[debug] current_player=1 (R), 
[debug] board[(1, 3)]=14, board[(1, 2)]=10, 
[debug] board state:
[[14  8 12  8]
 [13  7 10 14]
 [14  0  9 15]
 [ 4 15  2 15]
 [ 5  2  6 13]
 [ 6  5  6 15]
 [14 15  3 15]
 [ 1 11 13 13]], 

=10 

=16 

=12 d5 d5

[debug] move action_id=165, action=((3, 3), (3, 3)), 
[debug] current_player=0 (B), 
[debug] board[(3, 3)]=11, board[(3, 3)]=11, 
[debug] board state:
[[14  8 12  8]
 [13  7 10 14]
 [14  0  9 15]
 [ 4 15  2 11]
 [ 5  2  6 13]
 [ 6  5  6 15]
 [14 15  3 15]
 [ 1 11 13 13]], 

=11 

=16 

[debug] move action_id=1, action=((1, 0), (0, 0)), 
[debug] current_player=1 (R), 
[debug] board[(1, 0)]=14, board[(0, 0)]=13, 
[debug] board state:
[[13  8 12  8]
 [14  7 10 14]
 [14  0  9 15]
 [ 4 15  2 11]
 [ 5  2  6 13]
 [ 6  5  6 15]
 [14 15  3 15]
 [ 1 11 13 13]], 

=10 

=16 

=12 d3 d3

[debug] move action_id=253, action=((5, 3), (5, 3)), 
[debug] current_player=0 (B), 
[debug] board[(5, 3)]=12, board[(5, 3)]=12, 
[debug] board state:
[[13  8 12  8]
 [14  7 10 14]
 [14  0  9 15]
 [ 4 15  2 11]
 [ 5  2  6 13]
 [ 6  5  6 12]
 [14 15  3 15]
 [ 1 11 13 13]], 

=11 

=16 

[debug] move action_id=45, action=((0, 0), (1, 0)), 
[debug] current_player=1 (R), 
[debug] board[(0, 0)]=14, board[(1, 0)]=13, 
[debug] board state:
[[14  8 12  8]
 [13  7 10 14]
 [14  0  9 15]
 [ 4 15  2 11]
 [ 5  2  6 13]
 [ 6  5  6 12]
 [14 15  3 15]
 [ 1 11 13 13]], 

=10 

=16 

=12 a1 a2

[debug] move action_id=271, action=((7, 0), (6, 0)), 
[debug] current_player=0 (B), 
[debug] board[(7, 0)]=14, board[(6, 0)]=1, 
[debug] board state:
[[14  8 12  8]
 [13  7 10 14]
 [14  0  9 15]
 [ 4 15  2 11]
 [ 5  2  6 13]
 [ 6  5  6 12]
 [ 1 15  3 15]
 [14 11 13 13]], 

=10 

=16 

[debug] move action_id=1, action=((1, 0), (0, 0)), 
[debug] current_player=1 (R), 
[debug] board[(1, 0)]=14, board[(0, 0)]=13, 
[debug] board state:
[[13  8 12  8]
 [14  7 10 14]
 [14  0  9 15]
 [ 4 15  2 11]
 [ 5  2  6 13]
 [ 6  5  6 12]
 [ 1 15  3 15]
 [14 11 13 13]], 

=10 

=16 

=12 a2 a1

[debug] move action_id=315, action=((6, 0), (7, 0)), 
[debug] current_player=0 (B), 
[debug] board[(6, 0)]=14, board[(7, 0)]=1, 
[debug] board state:
[[13  8 12  8]
 [14  7 10 14]
 [14  0  9 15]
 [ 4 15  2 11]
 [ 5  2  6 13]
 [ 6  5  6 12]
 [14 15  3 15]
 [ 1 11 13 13]], 

=10 

=16 

[debug] move action_id=76, action=((1, 2), (1, 3)), 
[debug] current_player=1 (R), 
[debug] board[(1, 2)]=14, board[(1, 3)]=10, 
[debug] board state:
[[13  8 12  8]
 [14  7 14 10]
 [14  0  9 15]
 [ 4 15  2 11]
 [ 5  2  6 13]
 [ 6  5  6 12]
 [14 15  3 15]
 [ 1 11 13 13]], 

=10 

=16 

=12 d2 d2

[debug] move action_id=297, action=((6, 3), (6, 3)), 
[debug] current_player=0 (B), 
[debug] board[(6, 3)]=13, board[(6, 3)]=13, 
[debug] board state:
[[13  8 12  8]
 [14  7 14 10]
 [14  0  9 15]
 [ 4 15  2 11]
 [ 5  2  6 13]
 [ 6  5  6 12]
 [14 15  3 13]
 [ 1 11 13 13]], 

=11 

=16 

[debug] move action_id=64, action=((1, 1), (1, 2)), 
[debug] current_player=1 (R), 
[debug] board[(1, 1)]=14, board[(1, 2)]=7, 
[debug] board state:
[[13  8 12  8]
 [14 14  7 10]
 [14  0  9 15]
 [ 4 15  2 11]
 [ 5  2  6 13]
 [ 6  5  6 12]
 [14 15  3 13]
 [ 1 11 13 13]], 

=10 

=16 

=12 b6 c6

[debug] move action_id=108, action=((2, 1), (2, 2)), 
