INITIAL
* 2:31pm Aug 15, 2024
* a1 vs a0
* 1 2 2 2 2 2 5 1 2 2 2 2 2 5
* X X X X
* X X X X
* X X X X
* X X X X
* X X X X
* X X X X
* X X X X
* X X X X
* first 1
* time 900
* 1. d2(c) b3(M)
* 2. b2(R) b4(K)
* 3. c4(r) b4-c4
* 4. c6(g) c7(p)
* 5. c8(R) c1(G)
* 6. a5(M) b6(P)
* 7. d6(C) c4-b4
* 8. a4(G) b7(c)
* 9. a8(P) a3(p)
* 10. a6(C) a2(N)
* 11. b8(P) a2-a3
* 12. a1(m) d5(n)
* 13. d8(g) a7(p)
* 14. d1(P) b2-a2
* 15. a7-a8 b1(P)
* 16. a1-b1 b4-c4
* 17. c6-d6 b5(k)
* 18. d7(n) a2-b2
* 19. c5(N) d3(m)
* 20. d4(p) b8-a8
* 21. d5-c5 a4-b4
* 22. c5-d5 b4-a4
* 23. c7-c6 a6-c6
* 24. c2(r) c3(p)
* 25. b5-b4 b3-c3
* 26. b1-a1 c3-c2
* 27. b4-b3 a5-a6
* 28. d5-c5 b2-a2
* 29. d6-d5 a8-b8
* 30. b3-c3 c4-b4
* 31. a1-b1 a6-a5
* 32. b7-c7 a5-b5
* 33. c3-c4 c6-d6
* 34. c5-c6 b5-a5
* 35. c6-b6 b4-b5
* 36. d3-c3 a4-b4
* 37. b6-a6 c2-b2
* 38. d4-d3 c8-c7
* 39. d5-d4 b5-c5
* 40. a6-a7 b8-b7
* 41. a7-a6 a3-a4
* 42. d4-d5 d6-d3
* 43. d5-d4 c7-d7
* 44. d4-d3 a2-a1
* 45. c3-b3 a1-a2
* 46. c4-d4 a2-a1
* 47. d8-d7 c5-c4
* 48. d7-c7 a5-a6
* 49. b3-a3 c4-c5
* 50. d4-c4 b4-b3
* 51. c4-c3 b7-b6
* 52. c3-c2 b6-b7
* 53. d3-d4 b3-a3
* 54. b1-a1 b2-b3
* 55. d2-d3 b3-b2
* 56. a1-b1 c5-c6
* 57. d3-d2 c6-b6
* 58. d4-d3 a6-a7
* 59. d3-c3 b2-b1
* 60. c2-c1 b6-b5
* 61. c7-b7 b5-c5
* 62. c3-b3 a4-a5
* 63. b3-c3 d1-c1
* 64. b7-b6 a5-a6
* 65. b6-b7 c5-b5
* 66. d2-d1 a6-a5
* 67. b7-b6 b5-b4
* 68. c3-c4 a3-b3
* 69. c4-c3 b4-c4
* 70. c3-d3 c4-c5
* 71. b6-c6 b3-b2
* 72. c6-d6 a5-a6
* 73. d3-d2 a6-b6
* 74. d6-c6 a7-a8
* 75. c6-b6 a8-b8
* 76. d2-d3 b2-c2
* 77. d3-d2 b8-a8
* 78. b6-b5 b1-a1
* 79. b5-b4 a8-a7
* 80. b4-b5 a1-b1
* 81. d2-d3 c2-d2
* 82. d3-c3 d2-c2
* 83. b5-b4 a7-a8
* 84. c3-d3 c5-d5
* 85. d3-c3 d5-d6
* 86. b4-c4 c2-b2
* 87. c3-d3 b2-a2
* 88. c4-d4 d6-d5
* 89. d1-d2 a2-a1
* 90. d3-c3 a8-b8
* 91. c3-b3 b8-a8
* 92. d2-d1 c1-c2
* 93. d4-d3 c2-c1
* 94. b3-b4 a1-a2
* 95. b4-a4 d5-d6
* 96. a4-a3 a8-a7
* 97. d3-d2 d6-d7
* 98. a3-a2 a7-a8
* 99. a2-a3 d7-d8
* 100. d1-b1 d8-d7
* 101. b1-b2 c1-c2
* 102. b2-b3 c2-b2
* 103. d2-c2 b2-b1
* 104. b3-b4 b1-a1
* 105. b4-b3 a1-b1
* 106. c2-c1 d7-d8
* 107. c1-b1 a8-a7
* 108. b3-c3 a7-a6
* 109. b1-b2 a6-a5
* 110. a3-b3 a5-a4
* 111. b2-c2 a4-a3
* 112. b3-b2 a3-b3
* 113. b2-b1 b3-b4
* 114. b1-a1 b4-c4
* 115. c3-b3 c4-d4
* 116. c2-c3 d4-d5
* 117. a1-b1 d5-c5
* 118. c3-c2 d8-d7
* 119. b3-a3 d7-d6
* 120. a3-a2 c5-c6
* 121. b1-b2 c6-b6
* 122. c2-d2 b6-b5
* SocketBroken a0 Wins 0.000000,1.000000
* Comment 0 0
0. 1723703461628
1. 1723703461628
2. 1723703461813
3. 1723703462121
4. 1723703462313
5. 1723703462621
6. 1723703462813
7. 1723703463121
8. 1723703463313
9. 1723703463625
10. 1723703463813
11. 1723703464125
12. 1723703464317
13. 1723703464625
14. 1723703464817
15. 1723703465129
16. 1723703465317
17. 1723703465633
18. 1723703465817
19. 1723703466129
20. 1723703466321
21. 1723703466629
22. 1723703466821
23. 1723703467137
24. 1723703467321
25. 1723703467633
26. 1723703467821
27. 1723703468133
28. 1723703468325
29. 1723703468633
30. 1723703468825
31. 1723703469137
32. 1723703469325
33. 1723703469637
34. 1723703469825
35. 1723703470137
36. 1723703470329
37. 1723703470641
38. 1723703470833
39. 1723703471141
40. 1723703471329
41. 1723703471641
42. 1723703471833
43. 1723703472141
44. 1723703472333
45. 1723703472645
46. 1723703472833
47. 1723703473145
48. 1723703473337
49. 1723703473645
50. 1723703473837
51. 1723703474149
52. 1723703474337
53. 1723703474649
54. 1723703474841
55. 1723703475149
56. 1723703475341
57. 1723703475653
58. 1723703475841
59. 1723703476153
60. 1723703476345
61. 1723703476653
62. 1723703476845
63. 1723703477153
64. 1723703477297
65. 1723703477657
66. 1723703477849
67. 1723703478205
68. 1723703478349
69. 1723703478709
70. 1723703478901
71. 1723703479257
72. 1723703479405
73. 1723703479709
74. 1723703479853
75. 1723703480161
76. 1723703480305
77. 1723703480613
78. 1723703480757
79. 1723703481061
80. 1723703481209
81. 1723703481513
82. 1723703481665
83. 1723703481965
84. 1723703482113
85. 1723703482417
86. 1723703482565
87. 1723703482865
88. 1723703483013
89. 1723703483317
90. 1723703483465
91. 1723703483769
92. 1723703483917
93. 1723703484221
94. 1723703484369
95. 1723703484669
96. 1723703484821
97. 1723703485121
98. 1723703485269
99. 1723703485573
100. 1723703485721
101. 1723703486021
102. 1723703486173
103. 1723703486473
104. 1723703486625
105. 1723703486925
106. 1723703487077
107. 1723703487373
108. 1723703487525
109. 1723703487825
110. 1723703487977
111. 1723703488277
112. 1723703488429
113. 1723703488729
114. 1723703488881
115. 1723703489177
116. 1723703489329
117. 1723703489629
118. 1723703489781
119. 1723703490081
120. 1723703490233
121. 1723703490533
122. 1723703490685
123. 1723703490981
124. 1723703491137
125. 1723703491433
126. 1723703491585
127. 1723703491885
128. 1723703492037
129. 1723703492337
130. 1723703492489
131. 1723703492785
132. 1723703492937
133. 1723703493237
134. 1723703493389
135. 1723703493693
136. 1723703493845
137. 1723703494141
138. 1723703494293
139. 1723703494589
140. 1723703494741
141. 1723703495041
142. 1723703495193
143. 1723703495493
144. 1723703495645
145. 1723703495945
146. 1723703496097
147. 1723703496393
148. 1723703496549
149. 1723703496845
150. 1723703496997
151. 1723703497301
152. 1723703497453
153. 1723703497749
154. 1723703497905
155. 1723703498249
156. 1723703498401
157. 1723703498701
158. 1723703498853
159. 1723703499149
160. 1723703499305
161. 1723703499601
162. 1723703499753
163. 1723703500057
164. 1723703500209
165. 1723703500505
166. 1723703500657
167. 1723703500957
168. 1723703501109
169. 1723703501405
170. 1723703501557
171. 1723703501857
172. 1723703502009
173. 1723703502305
174. 1723703502461
175. 1723703502757
176. 1723703502909
177. 1723703503209
178. 1723703503361
179. 1723703503661
180. 1723703503813
181. 1723703504109
182. 1723703504265
183. 1723703504561
184. 1723703504713
185. 1723703505013
186. 1723703505165
187. 1723703505465
188. 1723703505617
189. 1723703505913
190. 1723703506065
191. 1723703506365
192. 1723703506517
193. 1723703506817
194. 1723703506969
195. 1723703507265
196. 1723703507421
197. 1723703507717
198. 1723703507869
199. 1723703508169
200. 1723703508321
201. 1723703508617
202. 1723703508777
203. 1723703509121
204. 1723703509273
205. 1723703509569
206. 1723703509725
207. 1723703510021
208. 1723703510177
209. 1723703510473
210. 1723703510625
211. 1723703510925
212. 1723703511081
213. 1723703511425
214. 1723703511577
215. 1723703511873
216. 1723703512029
217. 1723703512329
218. 1723703512481
219. 1723703512777
220. 1723703512933
221. 1723703513229
222. 1723703513381
223. 1723703513677
224. 1723703513833
225. 1723703514129
226. 1723703514285
227. 1723703514581
228. 1723703514733
229. 1723703515029
230. 1723703515189
231. 1723703515533
232. 1723703515685
233. 1723703515981
234. 1723703516141
235. 1723703516481
236. 1723703516641
237. 1723703516985
238. 1723703517141
239. 1723703517485
240. 1723703517645
241. 1723703517985
242. 1723703518145
243. 1723703518485
244. 1723703518649
