INITIAL
* 1:22pm Aug 16, 2024
* a1 vs a0
* 1 2 2 2 2 2 5 1 2 2 2 2 2 5
* X X X X
* X X X X
* X X X X
* X X X X
* X X X X
* X X X X
* X X X X
* X X X X
* first 1
* time 900
* 1. a7(g) b4(p)
* 2. a5(C) c3(r)
* 3. d6(g) b3(P)
* 4. b5(N) c7(k)
* 5. d7(R) a2(P)
* 6. c8(P) b6(G)
* 7. c1(N) c5(R)
* 8. a3(p) b7(c)
* 9. d4(P) b5-b4
* 10. a8(c) b8(m)
* 11. a6(p) c8-c7
* 12. d5(r) c7-c8
* 13. d1(K) a4(P)
* 14. c6(n) b3-a3
* 15. c4(p) b6-b5
* 16. d2(p) b4-c4
* 17. d3(G) c5-d5
* 18. c2(M) d7-c7
* 19. c3-b3 c4-c3
* 20. b3-a3 c2-d2
* 21. c6-b6 c3-c4
* 22. a1(M) d2-c2
* 23. d8(C) b5-b6
* 24. b2(m) d5-c5
* 25. d6-c6 c5-b5
* 26. b2-c2 b5-c5
* 27. c2-c3 a2-b2
* 28. c3-c4 d3-c3
* 29. c4-b4 c3-d3
* 30. b1(n) c7-b7
* 31. a7-b7 a5-b5
* 32. a3-b3 d3-c3
* 33. b1-c1 a1-a2
* 34. c1-c2 b6-a6
* 35. b4-c4 d1-c1
* 36. c6-c5 c3-c4
* 37. c5-c6 c4-c5
* 38. c6-b6 c5-d5
* 39. b6-b5 d4-c4
* 40. b7-a7 c1-c2
* 41. b5-b6 a6-a5
* SocketBroken a0 Wins 0.000000,1.000000
* Comment 0 0
0. 1723785778278
1. 1723785778278
2. 1723785778465
3. 1723785778621
4. 1723785778765
5. 1723785778921
6. 1723785779065
7. 1723785779221
8. 1723785779369
9. 1723785779525
10. 1723785779669
11. 1723785779829
12. 1723785780021
13. 1723785780173
14. 1723785780321
15. 1723785780477
16. 1723785780621
17. 1723785780777
18. 1723785780921
19. 1723785781077
20. 1723785781221
21. 1723785781377
22. 1723785781521
23. 1723785781677
24. 1723785781825
25. 1723785781977
26. 1723785782125
27. 1723785782277
28. 1723785782425
29. 1723785782581
30. 1723785782725
31. 1723785782881
32. 1723785783025
33. 1723785783181
34. 1723785783329
35. 1723785783481
36. 1723785783629
37. 1723785783781
38. 1723785783933
39. 1723785784085
40. 1723785784229
41. 1723785784381
42. 1723785784533
43. 1723785784689
44. 1723785784881
45. 1723785785033
46. 1723785785181
47. 1723785785337
48. 1723785785481
49. 1723785785637
50. 1723785785785
51. 1723785785941
52. 1723785786133
53. 1723785786289
54. 1723785786437
55. 1723785786593
56. 1723785786789
57. 1723785786941
58. 1723785787089
59. 1723785787241
60. 1723785787389
61. 1723785787545
62. 1723785787737
63. 1723785787893
64. 1723785788037
65. 1723785788193
66. 1723785788337
67. 1723785788493
68. 1723785788641
69. 1723785788797
70. 1723785788989
71. 1723785789145
72. 1723785789293
73. 1723785789445
74. 1723785789593
75. 1723785789749
76. 1723785789941
77. 1723785790097
78. 1723785790241
79. 1723785790397
80. 1723785790541
81. 1723785790697
82. 1723785790841
