INITIAL
* 1:7pm Sep 22, 2025
* Random2 vs Random
* 1 2 2 2 2 2 5 1 2 2 2 2 2 5
* X X X X
* X X X X
* X X X X
* X X X X
* X X X X
* X X X X
* X X X X
* X X X X
* first 0
* time 900
* 1. a8(R) b4(G)
* 2. c3(r) b3(r)
* 3. a4(c) c8(C)
* 4. c7(p) c5(P)
* 5. a2(K) d2(k)
* 6. b4-a4 a1(p)
* 7. a3(P) c4(n)
* 8. c6(G) a5(C)
* 9. a7(M) d3(N)
* 10. b1(g) c2(p)
* 11. b2(p) b2-a2
* 12. c1(m) b5(P)
* 13. b8(R) c3-d3
* 14. b6(P) b3-a3
* 15. d8(N) b1-b2
* 16. d6(g) b7(m)
* 17. a4-b4 b7-b8
* 18. c6-c7 d6-c6
* 19. b6-b7 a3-b3
* 20. a6(P) d1(c)
* 21. b7-b6 c4-c3
* 22. a5-a1 c6-b6
* 23. d4(n) b8-a8
* 24. c8-b8 c1-b1
* 25. b8-c8 d4-c4
* 26. d5(p) c2-c1
* 27. c8-b8 a8-a7
* 28. b4-c4 a7-a6
* 29. c7-c6 a6-a7
* 30. d8-c8 d3-d4
* 31. c5-d5 b6-b7
* 32. b5-a5 a2-a3
* 33. a5-a6 d4-d3
* 34. d5-d4 a7-a8
* 35. c4-b4 b2-c2
* 36. a6-b6 c3-c4
* 37. a1-c1 b3-c3
* 38. b4-a4 c4-c5
* 39. c8-d8 c2-b2
* 40. c1-c2 b7-b8
* 41. c6-d6 c5-d5
* SocketBroken Random Wins 0.000000,1.000000
* Comment 0 0
0. 1758546425598
1. 1758546425598
2. 1758546425781
3. 1758546425940
4. 1758546426082
5. 1758546426241
6. 1758546426384
7. 1758546426542
8. 1758546426685
9. 1758546426843
10. 1758546426985
11. 1758546427143
12. 1758546427286
13. 1758546427444
14. 1758546427588
15. 1758546427745
16. 1758546427888
17. 1758546428046
18. 1758546428189
19. 1758546428347
20. 1758546428491
21. 1758546428648
22. 1758546428792
23. 1758546428949
24. 1758546429093
25. 1758546429250
26. 1758546429394
27. 1758546429551
28. 1758546429695
29. 1758546429852
30. 1758546429996
31. 1758546430153
32. 1758546430297
33. 1758546430454
34. 1758546430598
35. 1758546430754
36. 1758546430898
37. 1758546431055
38. 1758546431199
39. 1758546431355
40. 1758546431500
41. 1758546431656
42. 1758546431801
43. 1758546431957
44. 1758546432102
45. 1758546432257
46. 1758546432403
47. 1758546432558
48. 1758546432704
49. 1758546432859
50. 1758546433005
51. 1758546433159
52. 1758546433306
53. 1758546433460
54. 1758546433606
55. 1758546433760
56. 1758546433907
57. 1758546434061
58. 1758546434208
59. 1758546434361
60. 1758546434509
61. 1758546434662
62. 1758546434809
63. 1758546434962
64. 1758546435110
65. 1758546435263
66. 1758546435411
67. 1758546435563
68. 1758546435712
69. 1758546435864
70. 1758546436012
71. 1758546436165
72. 1758546436313
73. 1758546436465
74. 1758546436614
75. 1758546436766
76. 1758546436915
77. 1758546437066
78. 1758546437216
79. 1758546437367
80. 1758546437516
81. 1758546437667
82. 1758546437817
