INITIAL
* 1:0pm Sep 22, 2025
* Random2 vs Random
* 1 2 2 2 2 2 5 1 2 2 2 2 2 5
* X X X X
* X X X X
* X X X X
* X X X X
* X X X X
* X X X X
* X X X X
* X X X X
* first 1
* time 900
* 1. a8(g) b4(C)
* 2. c3(G) b3(N)
* 3. b5(P) c8(p)
* 4. c7(n) c5(c)
* 5. d2(k) a7(K)
* 6. a1(r) d1(G)
* 7. a2(C) b2(r)
* 8. a3(P) c4(N)
* 9. d3(p) a6(M)
* 10. b7(P) a7-a8
* 11. a4(p) a5(M)
* 12. c5-a5 d7(P)
* 13. a4-a3 d8(m)
* 14. d8-d7 d6(p)
* 15. a3-a4 a2-a3
* 16. b2-b3 a8-a7
* 17. b3-b2 b4-b3
* 18. a1-a2 a3-a5
* 19. b6(p) c4-b4
* 20. d4(n) b7-b6
* 21. d2-d1 a7-a8
* 22. c6(g) b5-c5
* 23. a4-a3 b4-a4
* 24. c8-d8 c1(m)
* 25. b2-b3 c5-b5
* 26. c7-c8 b1(R)
* 27. d5(P) b5-b4
* 28. b8(R) b4-b5
* 29. b3-b2 a4-a3
* 30. d7-c7 a3-b3
* 31. a2-a3 b8-c8
* 32. a3-a2 a5-a4
* 33. a2-a3 a6-a7
* 34. d6-d5 b6-b7
* 35. c6-d6 b1-b2
* 36. c7-d7 b5-a5
* 37. d4-c4 a7-a6
* 38. a3-b3 b2-a2
* 39. b3-b4 c3-c4
* 40. d6-c6 c4-d4
* 41. b4-b3 c8-b8
* 42. c6-c5 b7-a7
* 43. c2(c) a4-b4
* 44. d1-d2 d4-d3
* 45. d5-d4 a7-b7
* 46. b3-c3 b7-c7
* 47. d7-d6 d3-c3
* 48. d6-d7 a2-a1
* 49. c5-d5 c3-d3
* 50. d4-c4 b4-b3
* 51. c2-c7 b3-b4
* 52. d2-d1 a1-b1
* 53. c7-c6 a5-a4
* 54. c4-c3 a6-a5
* 55. c3-c2 b4-b3
* 56. c2-d2 a4-a3
* 57. d7-d6 d3-d4
* 58. c6-b6 a5-a6
* 59. d5-c5 a6-a5
* 60. d6-c6 a3-a2
* 61. b6-b1 a2-b2
* 62. c1-c2 d4-d3
* 63. d8-d7 b2-a2
* 64. b1-c1 b3-a3
* 65. c6-d6 a2-a1
* 66. d7-c7 a5-a6
* 67. d6-d7 d3-d4
* 68. d7-d8 d4-c4
* 69. d8-c8 a3-b3
* 70. c5-c4 a1-b1
* 71. c2-b2 a6-a7
* 72. c4-d4 b3-a3
* 73. d4-c4 a3-a2
* 74. b2-b3 a2-b2
* 75. d2-c2 b8-b7
* 76. c8-b8 b2-a2
* 77. c4-c5 a2-a1
* 78. c7-c8 a1-c1
* 79. c5-c4 b1-a1
* 80. c2-c3 b7-b6
* 81. b3-b2 b6-c6
* 82. b2-b1 c6-d6
* 83. d1-c1 d6-d7
* 84. b8-b7 a1-a2
* 85. b1-b2 a8-b8
* 86. c1-c2 a7-a6
* 87. c4-c5 a6-b6
* 88. c5-b5 a2-a1
* 89. b7-c7 d7-d6
* 90. c7-c6 a1-b1
* 91. c3-d3 b8-b7
* 92. b2-a2 b1-a1
* 93. b5-c5 d6-d5
* 94. c6-b6 a1-b1
* 95. d3-d2 b1-b2
* 96. a2-a3 b2-c2
* 97. a3-a2 c2-d2
* 98. c8-c7 b7-b6
* 99. c5-d5 d2-c2
* 100. d5-d4 b6-b5
* SocketBroken Random Wins 0.000000,1.000000
* Comment 0 0
0. 1758546027869
1. 1758546027869
2. 1758546028028
3. 1758546028211
4. 1758546028379
5. 1758546028562
6. 1758546028731
7. 1758546028913
8. 1758546029082
9. 1758546029264
10. 1758546029433
11. 1758546029616
12. 1758546029784
13. 1758546029967
14. 1758546030135
15. 1758546030318
16. 1758546030486
17. 1758546030669
18. 1758546030837
19. 1758546031020
20. 1758546031188
21. 1758546031370
22. 1758546031539
23. 1758546031721
24. 1758546031890
25. 1758546032072
26. 1758546032240
27. 1758546032423
28. 1758546032592
29. 1758546032774
30. 1758546032942
31. 1758546033125
32. 1758546033293
33. 1758546033475
34. 1758546033644
35. 1758546033826
36. 1758546033995
37. 1758546034178
38. 1758546034346
39. 1758546034528
40. 1758546034697
41. 1758546034879
42. 1758546035048
43. 1758546035230
44. 1758546035399
45. 1758546035582
46. 1758546035750
47. 1758546035932
48. 1758546036101
49. 1758546036283
50. 1758546036452
51. 1758546036634
52. 1758546036803
53. 1758546036985
54. 1758546037154
55. 1758546037336
56. 1758546037505
57. 1758546037687
58. 1758546037856
59. 1758546038038
60. 1758546038207
61. 1758546038389
62. 1758546038558
63. 1758546038739
64. 1758546038909
65. 1758546039090
66. 1758546039260
67. 1758546039442
68. 1758546039611
69. 1758546039793
70. 1758546039962
71. 1758546040144
72. 1758546040314
73. 1758546040495
74. 1758546040664
75. 1758546040846
76. 1758546041015
77. 1758546041197
78. 1758546041367
79. 1758546041548
80. 1758546041717
81. 1758546041899
82. 1758546042067
83. 1758546042250
84. 1758546042419
85. 1758546042601
86. 1758546042769
87. 1758546042952
88. 1758546043120
89. 1758546043303
90. 1758546043471
91. 1758546043653
92. 1758546043823
93. 1758546044004
94. 1758546044172
95. 1758546044355
96. 1758546044523
97. 1758546044706
98. 1758546044874
99. 1758546045057
100. 1758546045225
101. 1758546045408
102. 1758546045576
103. 1758546045759
104. 1758546045927
105. 1758546046110
106. 1758546046278
107. 1758546046461
108. 1758546046629
109. 1758546046812
110. 1758546046980
111. 1758546047164
112. 1758546047331
113. 1758546047515
114. 1758546047682
115. 1758546047867
116. 1758546048033
117. 1758546048218
118. 1758546048384
119. 1758546048569
120. 1758546048735
121. 1758546048920
122. 1758546049086
123. 1758546049270
124. 1758546049437
125. 1758546049621
126. 1758546049788
127. 1758546049972
128. 1758546050138
129. 1758546050323
130. 1758546050489
131. 1758546050674
132. 1758546050840
133. 1758546051024
134. 1758546051191
135. 1758546051375
136. 1758546051542
137. 1758546051726
138. 1758546051892
139. 1758546052076
140. 1758546052243
141. 1758546052427
142. 1758546052594
143. 1758546052779
144. 1758546052945
145. 1758546053129
146. 1758546053296
147. 1758546053480
148. 1758546053647
149. 1758546053832
150. 1758546053998
151. 1758546054183
152. 1758546054349
153. 1758546054534
154. 1758546054700
155. 1758546054885
156. 1758546055051
157. 1758546055236
158. 1758546055401
159. 1758546055587
160. 1758546055752
161. 1758546055938
162. 1758546056103
163. 1758546056289
164. 1758546056454
165. 1758546056640
166. 1758546056805
167. 1758546056992
168. 1758546057156
169. 1758546057343
170. 1758546057507
171. 1758546057694
172. 1758546057858
173. 1758546058045
174. 1758546058210
175. 1758546058396
176. 1758546058561
177. 1758546058747
178. 1758546058912
179. 1758546059098
180. 1758546059263
181. 1758546059449
182. 1758546059614
183. 1758546059800
184. 1758546059965
185. 1758546060150
186. 1758546060316
187. 1758546060501
188. 1758546060667
189. 1758546060852
190. 1758546061018
191. 1758546061203
192. 1758546061369
193. 1758546061554
194. 1758546061720
195. 1758546061905
196. 1758546062071
197. 1758546062255
198. 1758546062422
199. 1758546062606
200. 1758546062773
