INITIAL
* 6:50pm Feb 18, 2026
* a1_lightzero vs a0_mu
* 1 2 2 2 2 2 5 1 2 2 2 2 2 5
* X X X X
* X X X X
* X X X X
* X X X X
* X X X X
* X X X X
* X X X X
* X X X X
* first 0
* time 900
* 1. b8(G) b1(g)
* 2. a4(m) c7(g)
* 3. d7(n) a6(k)
* 4. d3(R) b5(m)
* 5. b2(G) a7(r)
* 6. d8(p) a5(p)
* 7. c5(c) c8(C)
* 8. d1(K) d6(p)
* 9. b6(R) a3(N)
* 10. a2(M) c2(r)
* 11. c4(c) d4(n)
* 12. d5(P) d2(C)
* 13. b7(p) c6(p)
* 14. c3(N) b4(P)
* 15. c1(M) a8(P)
* 16. a1(P) a4-b4
* 17. b3(P) b4-a4
* 18. b8-b7 a4-b4
* 19. b7-b8 b4-a4
* 20. b8-b7 a4-b4
* 21. b7-b8 b4-a4
* 22. b8-b7 a4-b4
* 23. b7-b8 b4-a4
* 24. b6-b7 a4-b4
* 25. b7-b6 b4-a4
* 26. b8-b7 a4-b4
* 27. b7-b8 b4-a4
* 28. b8-b7 a4-b4
* 29. b7-b8 b4-a4
* 30. b8-b7 a4-b4
* 31. b7-b8
* PositionRepetitionDraw,3,4 a1_lightzero Draw 0.500000,0.500000
* Comment 0 0
0. 1771411854626
1. 1771411854626
2. 1771411855780
3. 1771411856823
4. 1771411857785
5. 1771411858829
6. 1771411859789
7. 1771411860834
8. 1771411861794
9. 1771411862840
10. 1771411863799
11. 1771411864844
12. 1771411865804
13. 1771411866849
14. 1771411867810
15. 1771411868854
16. 1771411869816
17. 1771411870859
18. 1771411871870
19. 1771411872914
20. 1771411873874
21. 1771411874918
22. 1771411875878
23. 1771411876922
24. 1771411877883
25. 1771411878927
26. 1771411879838
27. 1771411880882
28. 1771411881894
29. 1771411882936
30. 1771411883900
31. 1771411884942
32. 1771411885905
33. 1771411886945
34. 1771411887961
35. 1771411888999
36. 1771411889967
37. 1771411891003
38. 1771411891972
39. 1771411893007
40. 1771411893979
41. 1771411895012
42. 1771411895985
43. 1771411897017
44. 1771411897991
45. 1771411899022
46. 1771411899996
47. 1771411901027
48. 1771411902000
49. 1771411903031
50. 1771411904004
51. 1771411905037
52. 1771411906010
53. 1771411907043
54. 1771411908014
55. 1771411909049
56. 1771411910019
57. 1771411911053
58. 1771411912024
59. 1771411913057
60. 1771411914028
61. 1771411915062

# 10 27 29 63 65 99 101 135 137 171 173 207 209 243 245 279 281 315 317 351 353 387 389 423 425 459 461 495 497 531 533 567 569 603 605 639 641 675 677 711 713 747 749 783 785 819 821 855 857 891 893 927 929 963 965 999 1001 1035 1037 1071 1073 #
LightZero MGTP Interface Ready
=1 LightZero_DarkChess

=2 1.0.0

=7 

=15 

=14 

[debug] move action_id=11, action=((0, 1), (0, 1)), 
[debug] current_player=1 (B), 
[debug] board[(0, 1)]=1, board[(0, 1)]=1, 
[debug] board state:
[[15  1 15 15]
 [15 15 15 15]
 [15 15 15 15]
 [15 15 15 15]
 [15 15 15 15]
 [15 15 15 15]
 [15 15 15 15]
 [15 15 15 15]], 

=11 

=16 

=12 b1 b1

[debug] move action_id=319, action=((7, 1), (7, 1)), 
[debug] current_player=0 (R), 
[debug] board[(7, 1)]=8, board[(7, 1)]=8, 
[debug] board state:
[[15  1 15 15]
 [15 15 15 15]
 [15 15 15 15]
 [15 15 15 15]
 [15 15 15 15]
 [15 15 15 15]
 [15 15 15 15]
 [15  8 15 15]], 

=11 

=16 

[debug] move action_id=176, action=((4, 0), (4, 0)), 
[debug] current_player=1 (B), 
[debug] board[(4, 0)]=9, board[(4, 0)]=9, 
[debug] board state:
[[15  1 15 15]
 [15 15 15 15]
 [15 15 15 15]
 [15 15 15 15]
 [ 9 15 15 15]
 [15 15 15 15]
 [15 15 15 15]
 [15  8 15 15]], 

=11 

=16 

=12 c7 c7

[debug] move action_id=66, action=((1, 2), (1, 2)), 
[debug] current_player=0 (R), 
[debug] board[(1, 2)]=8, board[(1, 2)]=8, 
[debug] board state:
[[15  1 15 15]
 [15 15  8 15]
 [15 15 15 15]
 [15 15 15 15]
 [ 9 15 15 15]
 [15 15 15 15]
 [15 15 15 15]
 [15  8 15 15]], 

=11 

=16 

[debug] move action_id=77, action=((1, 3), (1, 3)), 
[debug] current_player=1 (B), 
[debug] board[(1, 3)]=11, board[(1, 3)]=11, 
[debug] board state:
[[15  1 15 15]
 [15 15  8 11]
 [15 15 15 15]
 [15 15 15 15]
 [ 9 15 15 15]
 [15 15 15 15]
 [15 15 15 15]
 [15  8 15 15]], 

=11 

=16 

=12 a6 a6

[debug] move action_id=88, action=((2, 0), (2, 0)), 
[debug] current_player=0 (R), 
[debug] board[(2, 0)]=7, board[(2, 0)]=7, 
[debug] board state:
[[15  1 15 15]
 [15 15  8 11]
 [ 7 15 15 15]
 [15 15 15 15]
 [ 9 15 15 15]
 [15 15 15 15]
 [15 15 15 15]
 [15  8 15 15]], 

=11 

=16 

[debug] move action_id=253, action=((5, 3), (5, 3)), 
[debug] current_player=1 (B), 
[debug] board[(5, 3)]=3, board[(5, 3)]=3, 
[debug] board state:
[[15  1 15 15]
 [15 15  8 11]
 [ 7 15 15 15]
 [15 15 15 15]
 [ 9 15 15 15]
 [15 15 15  3]
 [15 15 15 15]
 [15  8 15 15]], 

=11 

=16 

=12 b5 b5

[debug] move action_id=143, action=((3, 1), (3, 1)), 
[debug] current_player=0 (R), 
[debug] board[(3, 1)]=9, board[(3, 1)]=9, 
[debug] board state:
[[15  1 15 15]
 [15 15  8 11]
 [ 7 15 15 15]
 [15  9 15 15]
 [ 9 15 15 15]
 [15 15 15  3]
 [15 15 15 15]
 [15  8 15 15]], 

=11 

=16 

[debug] move action_id=275, action=((6, 1), (6, 1)), 
[debug] current_player=1 (B), 
[debug] board[(6, 1)]=1, board[(6, 1)]=1, 
[debug] board state:
[[15  1 15 15]
 [15 15  8 11]
 [ 7 15 15 15]
 [15  9 15 15]
 [ 9 15 15 15]
 [15 15 15  3]
 [15  1 15 15]
 [15  8 15 15]], 

=11 

=16 

=12 a7 a7

[debug] move action_id=44, action=((1, 0), (1, 0)), 
[debug] current_player=0 (R), 
[debug] board[(1, 0)]=10, board[(1, 0)]=10, 
[debug] board state:
[[15  1 15 15]
 [10 15  8 11]
 [ 7 15 15 15]
 [15  9 15 15]
 [ 9 15 15 15]
 [15 15 15  3]
 [15  1 15 15]
 [15  8 15 15]], 

=11 

=16 

[debug] move action_id=33, action=((0, 3), (0, 3)), 
[debug] current_player=1 (B), 
[debug] board[(0, 3)]=13, board[(0, 3)]=13, 
[debug] board state:
[[15  1 15 13]
 [10 15  8 11]
 [ 7 15 15 15]
 [15  9 15 15]
 [ 9 15 15 15]
 [15 15 15  3]
 [15  1 15 15]
 [15  8 15 15]], 

=11 

=16 

=12 a5 a5

[debug] move action_id=132, action=((3, 0), (3, 0)), 
[debug] current_player=0 (R), 
[debug] board[(3, 0)]=13, board[(3, 0)]=13, 
[debug] board state:
[[15  1 15 13]
 [10 15  8 11]
 [ 7 15 15 15]
 [13  9 15 15]
 [ 9 15 15 15]
 [15 15 15  3]
 [15  1 15 15]
 [15  8 15 15]], 

=11 

=16 

[debug] move action_id=154, action=((3, 2), (3, 2)), 
[debug] current_player=1 (B), 
[debug] board[(3, 2)]=12, board[(3, 2)]=12, 
[debug] board state:
[[15  1 15 13]
 [10 15  8 11]
 [ 7 15 15 15]
 [13  9 12 15]
 [ 9 15 15 15]
 [15 15 15  3]
 [15  1 15 15]
 [15  8 15 15]], 

=11 

=16 

=12 c8 c8

[debug] move action_id=22, action=((0, 2), (0, 2)), 
[debug] current_player=0 (R), 
[debug] board[(0, 2)]=5, board[(0, 2)]=5, 
[debug] board state:
[[15  1  5 13]
 [10 15  8 11]
 [ 7 15 15 15]
 [13  9 12 15]
 [ 9 15 15 15]
 [15 15 15  3]
 [15  1 15 15]
 [15  8 15 15]], 

=11 

=16 

[debug] move action_id=341, action=((7, 3), (7, 3)), 
[debug] current_player=1 (B), 
[debug] board[(7, 3)]=0, board[(7, 3)]=0, 
[debug] board state:
[[15  1  5 13]
 [10 15  8 11]
 [ 7 15 15 15]
 [13  9 12 15]
 [ 9 15 15 15]
 [15 15 15  3]
 [15  1 15 15]
 [15  8 15  0]], 

=11 

=16 

=12 d6 d6

[debug] move action_id=121, action=((2, 3), (2, 3)), 
[debug] current_player=0 (R), 
[debug] board[(2, 3)]=13, board[(2, 3)]=13, 
[debug] board state:
[[15  1  5 13]
 [10 15  8 11]
 [ 7 15 15 13]
 [13  9 12 15]
 [ 9 15 15 15]
 [15 15 15  3]
 [15  1 15 15]
 [15  8 15  0]], 

=11 

=16 

[debug] move action_id=99, action=((2, 1), (2, 1)), 
[debug] current_player=1 (B), 
[debug] board[(2, 1)]=3, board[(2, 1)]=3, 
[debug] board state:
[[15  1  5 13]
 [10 15  8 11]
 [ 7  3 15 13]
 [13  9 12 15]
 [ 9 15 15 15]
 [15 15 15  3]
 [15  1 15 15]
 [15  8 15  0]], 

=11 

=16 

=12 a3 a3

[debug] move action_id=220, action=((5, 0), (5, 0)), 
[debug] current_player=0 (R), 
[debug] board[(5, 0)]=4, board[(5, 0)]=4, 
[debug] board state:
[[15  1  5 13]
 [10 15  8 11]
 [ 7  3 15 13]
 [13  9 12 15]
 [ 9 15 15 15]
 [ 4 15 15  3]
 [15  1 15 15]
 [15  8 15  0]], 

=11 

=16 

[debug] move action_id=264, action=((6, 0), (6, 0)), 
[debug] current_player=1 (B), 
[debug] board[(6, 0)]=2, board[(6, 0)]=2, 
[debug] board state:
[[15  1  5 13]
 [10 15  8 11]
 [ 7  3 15 13]
 [13  9 12 15]
 [ 9 15 15 15]
 [ 4 15 15  3]
 [ 2  1 15 15]
 [15  8 15  0]], 

=11 

=16 

=12 c2 c2

[debug] move action_id=286, action=((6, 2), (6, 2)), 
[debug] current_player=0 (R), 
[debug] board[(6, 2)]=10, board[(6, 2)]=10, 
[debug] board state:
[[15  1  5 13]
 [10 15  8 11]
 [ 7  3 15 13]
 [13  9 12 15]
 [ 9 15 15 15]
 [ 4 15 15  3]
 [ 2  1 10 15]
 [15  8 15  0]], 

=11 

=16 

[debug] move action_id=198, action=((4, 2), (4, 2)), 
[debug] current_player=1 (B), 
[debug] board[(4, 2)]=12, board[(4, 2)]=12, 
[debug] board state:
[[15  1  5 13]
 [10 15  8 11]
 [ 7  3 15 13]
 [13  9 12 15]
 [ 9 15 12 15]
 [ 4 15 15  3]
 [ 2  1 10 15]
 [15  8 15  0]], 

=11 

=16 

=12 d4 d4

[debug] move action_id=209, action=((4, 3), (4, 3)), 
[debug] current_player=0 (R), 
[debug] board[(4, 3)]=11, board[(4, 3)]=11, 
[debug] board state:
[[15  1  5 13]
 [10 15  8 11]
 [ 7  3 15 13]
 [13  9 12 15]
 [ 9 15 12 11]
 [ 4 15 15  3]
 [ 2  1 10 15]
 [15  8 15  0]], 

=11 

=16 

[debug] move action_id=165, action=((3, 3), (3, 3)), 
[debug] current_player=1 (B), 
[debug] board[(3, 3)]=6, board[(3, 3)]=6, 
[debug] board state:
[[15  1  5 13]
 [10 15  8 11]
 [ 7  3 15 13]
 [13  9 12  6]
 [ 9 15 12 11]
 [ 4 15 15  3]
 [ 2  1 10 15]
 [15  8 15  0]], 

=11 

=16 

=12 d2 d2

[debug] move action_id=297, action=((6, 3), (6, 3)), 
[debug] current_player=0 (R), 
[debug] board[(6, 3)]=5, board[(6, 3)]=5, 
[debug] board state:
[[15  1  5 13]
 [10 15  8 11]
 [ 7  3 15 13]
 [13  9 12  6]
 [ 9 15 12 11]
 [ 4 15 15  3]
 [ 2  1 10  5]
 [15  8 15  0]], 

=11 

=16 

[debug] move action_id=55, action=((1, 1), (1, 1)), 
[debug] current_player=1 (B), 
[debug] board[(1, 1)]=13, board[(1, 1)]=13, 
[debug] board state:
[[15  1  5 13]
 [10 13  8 11]
 [ 7  3 15 13]
 [13  9 12  6]
 [ 9 15 12 11]
 [ 4 15 15  3]
 [ 2  1 10  5]
 [15  8 15  0]], 

=11 

=16 

=12 c6 c6

[debug] move action_id=110, action=((2, 2), (2, 2)), 
[debug] current_player=0 (R), 
[debug] board[(2, 2)]=13, board[(2, 2)]=13, 
[debug] board state:
[[15  1  5 13]
 [10 13  8 11]
 [ 7  3 13 13]
 [13  9 12  6]
 [ 9 15 12 11]
 [ 4 15 15  3]
 [ 2  1 10  5]
 [15  8 15  0]], 

=11 

=16 

[debug] move action_id=242, action=((5, 2), (5, 2)), 
[debug] current_player=1 (B), 
[debug] board[(5, 2)]=4, board[(5, 2)]=4, 
[debug] board state:
[[15  1  5 13]
 [10 13  8 11]
 [ 7  3 13 13]
 [13  9 12  6]
 [ 9 15 12 11]
 [ 4 15  4  3]
 [ 2  1 10  5]
 [15  8 15  0]], 

=11 

=16 

=12 b4 b4

[debug] move action_id=187, action=((4, 1), (4, 1)), 
[debug] current_player=0 (R), 
[debug] board[(4, 1)]=6, board[(4, 1)]=6, 
[debug] board state:
[[15  1  5 13]
 [10 13  8 11]
 [ 7  3 13 13]
 [13  9 12  6]
 [ 9  6 12 11]
 [ 4 15  4  3]
 [ 2  1 10  5]
 [15  8 15  0]], 

=11 

=16 

[debug] move action_id=330, action=((7, 2), (7, 2)), 
[debug] current_player=1 (B), 
[debug] board[(7, 2)]=2, board[(7, 2)]=2, 
[debug] board state:
[[15  1  5 13]
 [10 13  8 11]
 [ 7  3 13 13]
 [13  9 12  6]
 [ 9  6 12 11]
 [ 4 15  4  3]
 [ 2  1 10  5]
 [15  8  2  0]], 

=11 

=16 

=12 a8 a8

[debug] move action_id=0, action=((0, 0), (0, 0)), 
[debug] current_player=0 (R), 
[debug] board[(0, 0)]=6, board[(0, 0)]=6, 
[debug] board state:
[[ 6  1  5 13]
 [10 13  8 11]
 [ 7  3 13 13]
 [13  9 12  6]
 [ 9  6 12 11]
 [ 4 15  4  3]
 [ 2  1 10  5]
 [15  8  2  0]], 

=11 

=16 

[debug] move action_id=308, action=((7, 0), (7, 0)), 
[debug] current_player=1 (B), 
[debug] board[(7, 0)]=6, board[(7, 0)]=6, 
[debug] board state:
[[ 6  1  5 13]
 [10 13  8 11]
 [ 7  3 13 13]
 [13  9 12  6]
 [ 9  6 12 11]
 [ 4 15  4  3]
 [ 2  1 10  5]
 [ 6  8  2  0]], 

=11 

=16 

=12 a4 b4

[debug] move action_id=184, action=((4, 0), (4, 1)), 
[debug] current_player=0 (R), 
[debug] board[(4, 0)]=14, board[(4, 1)]=9, 
[debug] board state:
[[ 6  1  5 13]
 [10 13  8 11]
 [ 7  3 13 13]
 [13  9 12  6]
 [14  9 12 11]
 [ 4 15  4  3]
 [ 2  1 10  5]
 [ 6  8  2  0]], 

=10 

=16 

[debug] move action_id=231, action=((5, 1), (5, 1)), 
[debug] current_player=1 (B), 
[debug] board[(5, 1)]=6, board[(5, 1)]=6, 
[debug] board state:
[[ 6  1  5 13]
 [10 13  8 11]
 [ 7  3 13 13]
 [13  9 12  6]
 [14  9 12 11]
 [ 4  6  4  3]
 [ 2  1 10  5]
 [ 6  8  2  0]], 

=11 

=16 

=12 b4 a4

[debug] move action_id=195, action=((4, 1), (4, 0)), 
[debug] current_player=0 (R), 
[debug] board[(4, 1)]=14, board[(4, 0)]=9, 
[debug] board state:
[[ 6  1  5 13]
 [10 13  8 11]
 [ 7  3 13 13]
 [13  9 12  6]
 [ 9 14 12 11]
 [ 4  6  4  3]
 [ 2  1 10  5]
 [ 6  8  2  0]], 

=10 

=16 

[debug] move action_id=56, action=((0, 1), (1, 1)), 
[debug] current_player=1 (B), 
[debug] board[(0, 1)]=14, board[(1, 1)]=1, 
[debug] board state:
[[ 6 14  5 13]
 [10  1  8 11]
 [ 7  3 13 13]
 [13  9 12  6]
 [ 9 14 12 11]
 [ 4  6  4  3]
 [ 2  1 10  5]
 [ 6  8  2  0]], 

=10 

=16 

=12 a4 b4

[debug] move action_id=184, action=((4, 0), (4, 1)), 
[debug] current_player=0 (R), 
[debug] board[(4, 0)]=14, board[(4, 1)]=9, 
[debug] board state:
[[ 6 14  5 13]
 [10  1  8 11]
 [ 7  3 13 13]
 [13  9 12  6]
 [14  9 12 11]
 [ 4  6  4  3]
 [ 2  1 10  5]
 [ 6  8  2  0]], 

=10 

=16 

[debug] move action_id=12, action=((1, 1), (0, 1)), 
[debug] current_player=1 (B), 
[debug] board[(1, 1)]=14, board[(0, 1)]=1, 
[debug] board state:
[[ 6  1  5 13]
 [10 14  8 11]
 [ 7  3 13 13]
 [13  9 12  6]
 [14  9 12 11]
 [ 4  6  4  3]
 [ 2  1 10  5]
 [ 6  8  2  0]], 

=10 

=16 

=12 b4 a4

[debug] move action_id=195, action=((4, 1), (4, 0)), 
[debug] current_player=0 (R), 
[debug] board[(4, 1)]=14, board[(4, 0)]=9, 
[debug] board state:
[[ 6  1  5 13]
 [10 14  8 11]
 [ 7  3 13 13]
 [13  9 12  6]
 [ 9 14 12 11]
 [ 4  6  4  3]
 [ 2  1 10  5]
 [ 6  8  2  0]], 

=10 

=16 

[debug] move action_id=56, action=((0, 1), (1, 1)), 
[debug] current_player=1 (B), 
[debug] board[(0, 1)]=14, board[(1, 1)]=1, 
[debug] board state:
[[ 6 14  5 13]
 [10  1  8 11]
 [ 7  3 13 13]
 [13  9 12  6]
 [ 9 14 12 11]
 [ 4  6  4  3]
 [ 2  1 10  5]
 [ 6  8  2  0]], 

=10 

=16 

=12 a4 b4

[debug] move action_id=184, action=((4, 0), (4, 1)), 
[debug] current_player=0 (R), 
[debug] board[(4, 0)]=14, board[(4, 1)]=9, 
[debug] board state:
[[ 6 14  5 13]
 [10  1  8 11]
 [ 7  3 13 13]
 [13  9 12  6]
 [14  9 12 11]
 [ 4  6  4  3]
 [ 2  1 10  5]
 [ 6  8  2  0]], 

=10 

=16 

[debug] move action_id=12, action=((1, 1), (0, 1)), 
[debug] current_player=1 (B), 
[debug] board[(1, 1)]=14, board[(0, 1)]=1, 
[debug] board state:
[[ 6  1  5 13]
 [10 14  8 11]
 [ 7  3 13 13]
 [13  9 12  6]
 [14  9 12 11]
 [ 4  6  4  3]
 [ 2  1 10  5]
 [ 6  8  2  0]], 

=10 

=16 

=12 b4 a4

[debug] move action_id=195, action=((4, 1), (4, 0)), 
[debug] current_player=0 (R), 
[debug] board[(4, 1)]=14, board[(4, 0)]=9, 
[debug] board state:
[[ 6  1  5 13]
 [10 14  8 11]
 [ 7  3 13 13]
 [13  9 12  6]
 [ 9 14 12 11]
 [ 4  6  4  3]
 [ 2  1 10  5]
 [ 6  8  2  0]], 

=10 

=16 

[debug] move action_id=56, action=((0, 1), (1, 1)), 
[debug] current_player=1 (B), 
[debug] board[(0, 1)]=14, board[(1, 1)]=1, 
[debug] board state:
[[ 6 14  5 13]
 [10  1  8 11]
 [ 7  3 13 13]
 [13  9 12  6]
 [ 9 14 12 11]
 [ 4  6  4  3]
 [ 2  1 10  5]
 [ 6  8  2  0]], 

=10 

=16 

=12 a4 b4

[debug] move action_id=184, action=((4, 0), (4, 1)), 
[debug] current_player=0 (R), 
[debug] board[(4, 0)]=14, board[(4, 1)]=9, 
[debug] board state:
[[ 6 14  5 13]
 [10  1  8 11]
 [ 7  3 13 13]
 [13  9 12  6]
 [14  9 12 11]
 [ 4  6  4  3]
 [ 2  1 10  5]
 [ 6  8  2  0]], 

=10 

=16 

[debug] move action_id=12, action=((1, 1), (0, 1)), 
[debug] current_player=1 (B), 
[debug] board[(1, 1)]=14, board[(0, 1)]=1, 
[debug] board state:
[[ 6  1  5 13]
 [10 14  8 11]
 [ 7  3 13 13]
 [13  9 12  6]
 [14  9 12 11]
 [ 4  6  4  3]
 [ 2  1 10  5]
 [ 6  8  2  0]], 

=10 

=16 

=12 b4 a4

[debug] move action_id=195, action=((4, 1), (4, 0)), 
[debug] current_player=0 (R), 
[debug] board[(4, 1)]=14, board[(4, 0)]=9, 
[debug] board state:
[[ 6  1  5 13]
 [10 14  8 11]
 [ 7  3 13 13]
 [13  9 12  6]
 [ 9 14 12 11]
 [ 4  6  4  3]
 [ 2  1 10  5]
 [ 6  8  2  0]], 

=10 

=16 

[debug] move action_id=57, action=((2, 1), (1, 1)), 
[debug] current_player=1 (B), 
[debug] board[(2, 1)]=14, board[(1, 1)]=3, 
[debug] board state:
[[ 6  1  5 13]
 [10  3  8 11]
 [ 7 14 13 13]
 [13  9 12  6]
 [ 9 14 12 11]
 [ 4  6  4  3]
 [ 2  1 10  5]
 [ 6  8  2  0]], 

=10 

=16 

=12 a4 b4

[debug] move action_id=184, action=((4, 0), (4, 1)), 
[debug] current_player=0 (R), 
[debug] board[(4, 0)]=14, board[(4, 1)]=9, 
[debug] board state:
[[ 6  1  5 13]
 [10  3  8 11]
 [ 7 14 13 13]
 [13  9 12  6]
 [14  9 12 11]
 [ 4  6  4  3]
 [ 2  1 10  5]
 [ 6  8  2  0]], 

=10 

=16 

[debug] move action_id=101, action=((1, 1), (2, 1)), 
[debug] current_player=1 (B), 
[debug] board[(1, 1)]=14, board[(2, 1)]=3, 
[debug] board state:
[[ 6  1  5 13]
 [10 14  8 11]
 [ 7  3 13 13]
 [13  9 12  6]
 [14  9 12 11]
 [ 4  6  4  3]
 [ 2  1 10  5]
 [ 6  8  2  0]], 

=10 

=16 

=12 b4 a4

[debug] move action_id=195, action=((4, 1), (4, 0)), 
[debug] current_player=0 (R), 
[debug] board[(4, 1)]=14, board[(4, 0)]=9, 
[debug] board state:
[[ 6  1  5 13]
 [10 14  8 11]
 [ 7  3 13 13]
 [13  9 12  6]
 [ 9 14 12 11]
 [ 4  6  4  3]
 [ 2  1 10  5]
 [ 6  8  2  0]], 

=10 

=16 

[debug] move action_id=56, action=((0, 1), (1, 1)), 
[debug] current_player=1 (B), 
[debug] board[(0, 1)]=14, board[(1, 1)]=1, 
[debug] board state:
[[ 6 14  5 13]
 [10  1  8 11]
 [ 7  3 13 13]
 [13  9 12  6]
 [ 9 14 12 11]
 [ 4  6  4  3]
 [ 2  1 10  5]
 [ 6  8  2  0]], 

=10 

=16 

=12 a4 b4

[debug] move action_id=184, action=((4, 0), (4, 1)), 
[debug] current_player=0 (R), 
[debug] board[(4, 0)]=14, board[(4, 1)]=9, 
[debug] board state:
[[ 6 14  5 13]
 [10  1  8 11]
 [ 7  3 13 13]
 [13  9 12  6]
 [14  9 12 11]
 [ 4  6  4  3]
 [ 2  1 10  5]
 [ 6  8  2  0]], 

=10 

=16 

[debug] move action_id=12, action=((1, 1), (0, 1)), 
[debug] current_player=1 (B), 
[debug] board[(1, 1)]=14, board[(0, 1)]=1, 
[debug] board state:
[[ 6  1  5 13]
 [10 14  8 11]
 [ 7  3 13 13]
 [13  9 12  6]
 [14  9 12 11]
 [ 4  6  4  3]
 [ 2  1 10  5]
 [ 6  8  2  0]], 

=10 

=16 

=12 b4 a4

[debug] move action_id=195, action=((4, 1), (4, 0)), 
[debug] current_player=0 (R), 
[debug] board[(4, 1)]=14, board[(4, 0)]=9, 
[debug] board state:
[[ 6  1  5 13]
 [10 14  8 11]
 [ 7  3 13 13]
 [13  9 12  6]
 [ 9 14 12 11]
 [ 4  6  4  3]
 [ 2  1 10  5]
 [ 6  8  2  0]], 

=10 

=16 

[debug] move action_id=56, action=((0, 1), (1, 1)), 
[debug] current_player=1 (B), 
[debug] board[(0, 1)]=14, board[(1, 1)]=1, 
[debug] board state:
[[ 6 14  5 13]
 [10  1  8 11]
 [ 7  3 13 13]
 [13  9 12  6]
 [ 9 14 12 11]
 [ 4  6  4  3]
 [ 2  1 10  5]
 [ 6  8  2  0]], 

=10 

=16 

=12 a4 b4

[debug] move action_id=184, action=((4, 0), (4, 1)), 
[debug] current_player=0 (R), 
[debug] board[(4, 0)]=14, board[(4, 1)]=9, 
[debug] board state:
[[ 6 14  5 13]
 [10  1  8 11]
 [ 7  3 13 13]
 [13  9 12  6]
 [14  9 12 11]
 [ 4  6  4  3]
 [ 2  1 10  5]
 [ 6  8  2  0]], 

=10 

=16 

[debug] move action_id=12, action=((1, 1), (0, 1)), 
[debug] current_player=1 (B), 
[debug] board[(1, 1)]=14, board[(0, 1)]=1, 
[debug] board state:
[[ 6  1  5 13]
 [10 14  8 11]
 [ 7  3 13 13]
 [13  9 12  6]
 [14  9 12 11]
 [ 4  6  4  3]
 [ 2  1 10  5]
 [ 6  8  2  0]], 

=10 

=16 

=12 b4 a4

[debug] move action_id=195, action=((4, 1), (4, 0)), 
[debug] current_player=0 (R), 
[debug] board[(4, 1)]=14, board[(4, 0)]=9, 
[debug] board state:
[[ 6  1  5 13]
 [10 14  8 11]
 [ 7  3 13 13]
 [13  9 12  6]
 [ 9 14 12 11]
 [ 4  6  4  3]
 [ 2  1 10  5]
 [ 6  8  2  0]], 

=10 

=16 

[debug] move action_id=56, action=((0, 1), (1, 1)), 
[debug] current_player=1 (B), 
[debug] board[(0, 1)]=14, board[(1, 1)]=1, 
[debug] board state:
[[ 6 14  5 13]
 [10  1  8 11]
 [ 7  3 13 13]
 [13  9 12  6]
 [ 9 14 12 11]
 [ 4  6  4  3]
 [ 2  1 10  5]
 [ 6  8  2  0]], 

=10 

=16 

=12 a4 b4

[debug] move action_id=184, action=((4, 0), (4, 1)), 
[debug] current_player=0 (R), 
[debug] board[(4, 0)]=14, board[(4, 1)]=9, 
[debug] board state:
[[ 6 14  5 13]
 [10  1  8 11]
 [ 7  3 13 13]
 [13  9 12  6]
 [14  9 12 11]
 [ 4  6  4  3]
 [ 2  1 10  5]
 [ 6  8  2  0]], 

=10 

=16 

[debug] move action_id=12, action=((1, 1), (0, 1)), 
[debug] current_player=1 (B), 
[debug] board[(1, 1)]=14, board[(0, 1)]=1, 
[debug] board state:
[[ 6  1  5 13]
 [10 14  8 11]
 [ 7  3 13 13]
 [13  9 12  6]
 [14  9 12 11]
 [ 4  6  4  3]
 [ 2  1 10  5]
 [ 6  8  2  0]], 

=10 

=16 


