INITIAL
* 7:20pm Feb 18, 2026
* a0_mu vs a1_lightzero
* 1 2 2 2 2 2 5 1 2 2 2 2 2 5
* X X X X
* X X X X
* X X X X
* X X X X
* X X X X
* X X X X
* X X X X
* X X X X
* first 1
* time 900
* 1. b1(r) b8(M)
* 2. c7(c) a4(r)
* 3. a6(P) b2(P)
* 4. d8(G) c5(n)
* 5. d7(p) d3(p)
* 6. a5(p) d6(c)
* 7. c8(N) a2(p)
* 8. c1(P) d5(R)
* 9. a7(R) d1(m)
* 10. c3(K) b4(p)
* 11. c2(g) c4(G)
* 12. b3(P) b6(m)
* 13. a8(C) a3(C)
* 14. b7(n) a1(g)
* 15. d2(k) d4(P)
* 16. b5(N) c6(M)
* 17. a2-b2 d8-d7
* 18. a1-a2 d7-c7
* 19. a2-a1 c7-d7
* 20. a1-a2 d7-c7
* 21. a2-a1 c7-d7
* 22. a1-a2 d7-c7
* 23. a2-a1 c7-d7
* 24. a1-a2 d7-c7
* PositionRepetitionDraw,3,4 a0_mu Draw 0.500000,0.500000
* Comment 0 0
0. 1771413658736
1. 1771413658736
2. 1771413659924
3. 1771413660880
4. 1771413661878
5. 1771413662833
6. 1771413663834
7. 1771413664787
8. 1771413665789
9. 1771413666740
10. 1771413667744
11. 1771413668694
12. 1771413669700
13. 1771413670648
14. 1771413671655
15. 1771413672601
16. 1771413673610
17. 1771413674555
18. 1771413675563
19. 1771413676508
20. 1771413677517
21. 1771413678462
22. 1771413679470
23. 1771413680416
24. 1771413681424
25. 1771413682370
26. 1771413683377
27. 1771413684323
28. 1771413685331
29. 1771413686277
30. 1771413687284
31. 1771413688231
32. 1771413689287
33. 1771413690235
34. 1771413691241
35. 1771413692189
36. 1771413693195
37. 1771413694143
38. 1771413695150
39. 1771413696098
40. 1771413697105
41. 1771413698052
42. 1771413699060
43. 1771413700006
44. 1771413701015
45. 1771413701959
46. 1771413702970
47. 1771413703913
48. 1771413704925

# 10 12 46 48 82 84 118 120 154 156 190 192 226 228 262 264 298 300 334 336 370 372 406 408 442 444 478 480 514 516 550 552 586 588 622 624 658 660 694 696 730 732 766 768 802 804 838 840 #
LightZero MGTP Interface Ready
=1 LightZero_DarkChess

=2 1.0.0

=7 

=15 

=14 

=12 b1 b1

[debug] move action_id=319, action=((7, 1), (7, 1)), 
[debug] current_player=1 (R), 
[debug] board[(7, 1)]=10, board[(7, 1)]=10, 
[debug] board state:
[[15 15 15 15]
 [15 15 15 15]
 [15 15 15 15]
 [15 15 15 15]
 [15 15 15 15]
 [15 15 15 15]
 [15 15 15 15]
 [15 10 15 15]], 

=11 

=16 

[debug] move action_id=11, action=((0, 1), (0, 1)), 
[debug] current_player=0 (B), 
[debug] board[(0, 1)]=2, board[(0, 1)]=2, 
[debug] board state:
[[15  2 15 15]
 [15 15 15 15]
 [15 15 15 15]
 [15 15 15 15]
 [15 15 15 15]
 [15 15 15 15]
 [15 15 15 15]
 [15 10 15 15]], 

=11 

=16 

=12 c7 c7

[debug] move action_id=66, action=((1, 2), (1, 2)), 
[debug] current_player=1 (R), 
[debug] board[(1, 2)]=12, board[(1, 2)]=12, 
[debug] board state:
[[15  2 15 15]
 [15 15 12 15]
 [15 15 15 15]
 [15 15 15 15]
 [15 15 15 15]
 [15 15 15 15]
 [15 15 15 15]
 [15 10 15 15]], 

=11 

=16 

[debug] move action_id=176, action=((4, 0), (4, 0)), 
[debug] current_player=0 (B), 
[debug] board[(4, 0)]=10, board[(4, 0)]=10, 
[debug] board state:
[[15  2 15 15]
 [15 15 12 15]
 [15 15 15 15]
 [15 15 15 15]
 [10 15 15 15]
 [15 15 15 15]
 [15 15 15 15]
 [15 10 15 15]], 

=11 

=16 

=12 a6 a6

[debug] move action_id=88, action=((2, 0), (2, 0)), 
[debug] current_player=1 (R), 
[debug] board[(2, 0)]=6, board[(2, 0)]=6, 
[debug] board state:
[[15  2 15 15]
 [15 15 12 15]
 [ 6 15 15 15]
 [15 15 15 15]
 [10 15 15 15]
 [15 15 15 15]
 [15 15 15 15]
 [15 10 15 15]], 

=11 

=16 

[debug] move action_id=275, action=((6, 1), (6, 1)), 
[debug] current_player=0 (B), 
[debug] board[(6, 1)]=6, board[(6, 1)]=6, 
[debug] board state:
[[15  2 15 15]
 [15 15 12 15]
 [ 6 15 15 15]
 [15 15 15 15]
 [10 15 15 15]
 [15 15 15 15]
 [15  6 15 15]
 [15 10 15 15]], 

=11 

=16 

=12 d8 d8

[debug] move action_id=33, action=((0, 3), (0, 3)), 
[debug] current_player=1 (R), 
[debug] board[(0, 3)]=1, board[(0, 3)]=1, 
[debug] board state:
[[15  2 15  1]
 [15 15 12 15]
 [ 6 15 15 15]
 [15 15 15 15]
 [10 15 15 15]
 [15 15 15 15]
 [15  6 15 15]
 [15 10 15 15]], 

=11 

=16 

[debug] move action_id=154, action=((3, 2), (3, 2)), 
[debug] current_player=0 (B), 
[debug] board[(3, 2)]=11, board[(3, 2)]=11, 
[debug] board state:
[[15  2 15  1]
 [15 15 12 15]
 [ 6 15 15 15]
 [15 15 11 15]
 [10 15 15 15]
 [15 15 15 15]
 [15  6 15 15]
 [15 10 15 15]], 

=11 

=16 

=12 d7 d7

[debug] move action_id=77, action=((1, 3), (1, 3)), 
[debug] current_player=1 (R), 
[debug] board[(1, 3)]=13, board[(1, 3)]=13, 
[debug] board state:
[[15  2 15  1]
 [15 15 12 13]
 [ 6 15 15 15]
 [15 15 11 15]
 [10 15 15 15]
 [15 15 15 15]
 [15  6 15 15]
 [15 10 15 15]], 

=11 

=16 

[debug] move action_id=253, action=((5, 3), (5, 3)), 
[debug] current_player=0 (B), 
[debug] board[(5, 3)]=13, board[(5, 3)]=13, 
[debug] board state:
[[15  2 15  1]
 [15 15 12 13]
 [ 6 15 15 15]
 [15 15 11 15]
 [10 15 15 15]
 [15 15 15 13]
 [15  6 15 15]
 [15 10 15 15]], 

=11 

=16 

=12 a5 a5

[debug] move action_id=132, action=((3, 0), (3, 0)), 
[debug] current_player=1 (R), 
[debug] board[(3, 0)]=13, board[(3, 0)]=13, 
[debug] board state:
[[15  2 15  1]
 [15 15 12 13]
 [ 6 15 15 15]
 [13 15 11 15]
 [10 15 15 15]
 [15 15 15 13]
 [15  6 15 15]
 [15 10 15 15]], 

=11 

=16 

[debug] move action_id=121, action=((2, 3), (2, 3)), 
[debug] current_player=0 (B), 
[debug] board[(2, 3)]=12, board[(2, 3)]=12, 
[debug] board state:
[[15  2 15  1]
 [15 15 12 13]
 [ 6 15 15 12]
 [13 15 11 15]
 [10 15 15 15]
 [15 15 15 13]
 [15  6 15 15]
 [15 10 15 15]], 

=11 

=16 

=12 c8 c8

[debug] move action_id=22, action=((0, 2), (0, 2)), 
[debug] current_player=1 (R), 
[debug] board[(0, 2)]=4, board[(0, 2)]=4, 
[debug] board state:
[[15  2  4  1]
 [15 15 12 13]
 [ 6 15 15 12]
 [13 15 11 15]
 [10 15 15 15]
 [15 15 15 13]
 [15  6 15 15]
 [15 10 15 15]], 

=11 

=16 

[debug] move action_id=264, action=((6, 0), (6, 0)), 
[debug] current_player=0 (B), 
[debug] board[(6, 0)]=13, board[(6, 0)]=13, 
[debug] board state:
[[15  2  4  1]
 [15 15 12 13]
 [ 6 15 15 12]
 [13 15 11 15]
 [10 15 15 15]
 [15 15 15 13]
 [13  6 15 15]
 [15 10 15 15]], 

=11 

=16 

=12 c1 c1

[debug] move action_id=330, action=((7, 2), (7, 2)), 
[debug] current_player=1 (R), 
[debug] board[(7, 2)]=6, board[(7, 2)]=6, 
[debug] board state:
[[15  2  4  1]
 [15 15 12 13]
 [ 6 15 15 12]
 [13 15 11 15]
 [10 15 15 15]
 [15 15 15 13]
 [13  6 15 15]
 [15 10  6 15]], 

=11 

=16 

[debug] move action_id=165, action=((3, 3), (3, 3)), 
[debug] current_player=0 (B), 
[debug] board[(3, 3)]=3, board[(3, 3)]=3, 
[debug] board state:
[[15  2  4  1]
 [15 15 12 13]
 [ 6 15 15 12]
 [13 15 11  3]
 [10 15 15 15]
 [15 15 15 13]
 [13  6 15 15]
 [15 10  6 15]], 

=11 

=16 

=12 a7 a7

[debug] move action_id=44, action=((1, 0), (1, 0)), 
[debug] current_player=1 (R), 
[debug] board[(1, 0)]=3, board[(1, 0)]=3, 
[debug] board state:
[[15  2  4  1]
 [ 3 15 12 13]
 [ 6 15 15 12]
 [13 15 11  3]
 [10 15 15 15]
 [15 15 15 13]
 [13  6 15 15]
 [15 10  6 15]], 

=11 

=16 

[debug] move action_id=341, action=((7, 3), (7, 3)), 
[debug] current_player=0 (B), 
[debug] board[(7, 3)]=9, board[(7, 3)]=9, 
[debug] board state:
[[15  2  4  1]
 [ 3 15 12 13]
 [ 6 15 15 12]
 [13 15 11  3]
 [10 15 15 15]
 [15 15 15 13]
 [13  6 15 15]
 [15 10  6  9]], 

=11 

=16 

=12 c3 c3

[debug] move action_id=242, action=((5, 2), (5, 2)), 
[debug] current_player=1 (R), 
[debug] board[(5, 2)]=0, board[(5, 2)]=0, 
[debug] board state:
[[15  2  4  1]
 [ 3 15 12 13]
 [ 6 15 15 12]
 [13 15 11  3]
 [10 15 15 15]
 [15 15  0 13]
 [13  6 15 15]
 [15 10  6  9]], 

=11 

=16 

[debug] move action_id=187, action=((4, 1), (4, 1)), 
[debug] current_player=0 (B), 
[debug] board[(4, 1)]=13, board[(4, 1)]=13, 
[debug] board state:
[[15  2  4  1]
 [ 3 15 12 13]
 [ 6 15 15 12]
 [13 15 11  3]
 [10 13 15 15]
 [15 15  0 13]
 [13  6 15 15]
 [15 10  6  9]], 

=11 

=16 

=12 c2 c2

[debug] move action_id=286, action=((6, 2), (6, 2)), 
[debug] current_player=1 (R), 
[debug] board[(6, 2)]=8, board[(6, 2)]=8, 
[debug] board state:
[[15  2  4  1]
 [ 3 15 12 13]
 [ 6 15 15 12]
 [13 15 11  3]
 [10 13 15 15]
 [15 15  0 13]
 [13  6  8 15]
 [15 10  6  9]], 

=11 

=16 

[debug] move action_id=198, action=((4, 2), (4, 2)), 
[debug] current_player=0 (B), 
[debug] board[(4, 2)]=1, board[(4, 2)]=1, 
[debug] board state:
[[15  2  4  1]
 [ 3 15 12 13]
 [ 6 15 15 12]
 [13 15 11  3]
 [10 13  1 15]
 [15 15  0 13]
 [13  6  8 15]
 [15 10  6  9]], 

=11 

=16 

=12 b3 b3

[debug] move action_id=231, action=((5, 1), (5, 1)), 
[debug] current_player=1 (R), 
[debug] board[(5, 1)]=6, board[(5, 1)]=6, 
[debug] board state:
[[15  2  4  1]
 [ 3 15 12 13]
 [ 6 15 15 12]
 [13 15 11  3]
 [10 13  1 15]
 [15  6  0 13]
 [13  6  8 15]
 [15 10  6  9]], 

=11 

=16 

[debug] move action_id=99, action=((2, 1), (2, 1)), 
[debug] current_player=0 (B), 
[debug] board[(2, 1)]=9, board[(2, 1)]=9, 
[debug] board state:
[[15  2  4  1]
 [ 3 15 12 13]
 [ 6  9 15 12]
 [13 15 11  3]
 [10 13  1 15]
 [15  6  0 13]
 [13  6  8 15]
 [15 10  6  9]], 

=11 

=16 

=12 a8 a8

[debug] move action_id=0, action=((0, 0), (0, 0)), 
[debug] current_player=1 (R), 
[debug] board[(0, 0)]=5, board[(0, 0)]=5, 
[debug] board state:
[[ 5  2  4  1]
 [ 3 15 12 13]
 [ 6  9 15 12]
 [13 15 11  3]
 [10 13  1 15]
 [15  6  0 13]
 [13  6  8 15]
 [15 10  6  9]], 

=11 

=16 

[debug] move action_id=220, action=((5, 0), (5, 0)), 
[debug] current_player=0 (B), 
[debug] board[(5, 0)]=5, board[(5, 0)]=5, 
[debug] board state:
[[ 5  2  4  1]
 [ 3 15 12 13]
 [ 6  9 15 12]
 [13 15 11  3]
 [10 13  1 15]
 [ 5  6  0 13]
 [13  6  8 15]
 [15 10  6  9]], 

=11 

=16 

=12 b7 b7

[debug] move action_id=55, action=((1, 1), (1, 1)), 
[debug] current_player=1 (R), 
[debug] board[(1, 1)]=11, board[(1, 1)]=11, 
[debug] board state:
[[ 5  2  4  1]
 [ 3 11 12 13]
 [ 6  9 15 12]
 [13 15 11  3]
 [10 13  1 15]
 [ 5  6  0 13]
 [13  6  8 15]
 [15 10  6  9]], 

=11 

=16 

[debug] move action_id=308, action=((7, 0), (7, 0)), 
[debug] current_player=0 (B), 
[debug] board[(7, 0)]=8, board[(7, 0)]=8, 
[debug] board state:
[[ 5  2  4  1]
 [ 3 11 12 13]
 [ 6  9 15 12]
 [13 15 11  3]
 [10 13  1 15]
 [ 5  6  0 13]
 [13  6  8 15]
 [ 8 10  6  9]], 

=11 

=16 

=12 d2 d2

[debug] move action_id=297, action=((6, 3), (6, 3)), 
[debug] current_player=1 (R), 
[debug] board[(6, 3)]=7, board[(6, 3)]=7, 
[debug] board state:
[[ 5  2  4  1]
 [ 3 11 12 13]
 [ 6  9 15 12]
 [13 15 11  3]
 [10 13  1 15]
 [ 5  6  0 13]
 [13  6  8  7]
 [ 8 10  6  9]], 

=11 

=16 

[debug] move action_id=209, action=((4, 3), (4, 3)), 
[debug] current_player=0 (B), 
[debug] board[(4, 3)]=6, board[(4, 3)]=6, 
[debug] board state:
[[ 5  2  4  1]
 [ 3 11 12 13]
 [ 6  9 15 12]
 [13 15 11  3]
 [10 13  1  6]
 [ 5  6  0 13]
 [13  6  8  7]
 [ 8 10  6  9]], 

=11 

=16 

=12 b5 b5

[debug] move action_id=143, action=((3, 1), (3, 1)), 
[debug] current_player=1 (R), 
[debug] board[(3, 1)]=4, board[(3, 1)]=4, 
[debug] board state:
[[ 5  2  4  1]
 [ 3 11 12 13]
 [ 6  9 15 12]
 [13  4 11  3]
 [10 13  1  6]
 [ 5  6  0 13]
 [13  6  8  7]
 [ 8 10  6  9]], 

=11 

=16 

[debug] move action_id=110, action=((2, 2), (2, 2)), 
[debug] current_player=0 (B), 
[debug] board[(2, 2)]=2, board[(2, 2)]=2, 
[debug] board state:
[[ 5  2  4  1]
 [ 3 11 12 13]
 [ 6  9  2 12]
 [13  4 11  3]
 [10 13  1  6]
 [ 5  6  0 13]
 [13  6  8  7]
 [ 8 10  6  9]], 

=11 

=16 

=12 a2 b2

[debug] move action_id=272, action=((6, 0), (6, 1)), 
[debug] current_player=1 (R), 
[debug] board[(6, 0)]=14, board[(6, 1)]=13, 
[debug] board state:
[[ 5  2  4  1]
 [ 3 11 12 13]
 [ 6  9  2 12]
 [13  4 11  3]
 [10 13  1  6]
 [ 5  6  0 13]
 [14 13  8  7]
 [ 8 10  6  9]], 

=10 

=16 

[debug] move action_id=78, action=((0, 3), (1, 3)), 
[debug] current_player=0 (B), 
[debug] board[(0, 3)]=14, board[(1, 3)]=1, 
[debug] board state:
[[ 5  2  4 14]
 [ 3 11 12  1]
 [ 6  9  2 12]
 [13  4 11  3]
 [10 13  1  6]
 [ 5  6  0 13]
 [14 13  8  7]
 [ 8 10  6  9]], 

=10 

=16 

=12 a1 a2

[debug] move action_id=271, action=((7, 0), (6, 0)), 
[debug] current_player=1 (R), 
[debug] board[(7, 0)]=14, board[(6, 0)]=8, 
[debug] board state:
[[ 5  2  4 14]
 [ 3 11 12  1]
 [ 6  9  2 12]
 [13  4 11  3]
 [10 13  1  6]
 [ 5  6  0 13]
 [ 8 13  8  7]
 [14 10  6  9]], 

=10 

=16 

[debug] move action_id=87, action=((1, 3), (1, 2)), 
[debug] current_player=0 (B), 
[debug] board[(1, 3)]=14, board[(1, 2)]=1, 
[debug] board state:
[[ 5  2  4 14]
 [ 3 11  1 14]
 [ 6  9  2 12]
 [13  4 11  3]
 [10 13  1  6]
 [ 5  6  0 13]
 [ 8 13  8  7]
 [14 10  6  9]], 

=10 

=16 

=12 a2 a1

[debug] move action_id=315, action=((6, 0), (7, 0)), 
[debug] current_player=1 (R), 
[debug] board[(6, 0)]=14, board[(7, 0)]=8, 
[debug] board state:
[[ 5  2  4 14]
 [ 3 11  1 14]
 [ 6  9  2 12]
 [13  4 11  3]
 [10 13  1  6]
 [ 5  6  0 13]
 [14 13  8  7]
 [ 8 10  6  9]], 

=10 

=16 

[debug] move action_id=76, action=((1, 2), (1, 3)), 
[debug] current_player=0 (B), 
[debug] board[(1, 2)]=14, board[(1, 3)]=1, 
[debug] board state:
[[ 5  2  4 14]
 [ 3 11 14  1]
 [ 6  9  2 12]
 [13  4 11  3]
 [10 13  1  6]
 [ 5  6  0 13]
 [14 13  8  7]
 [ 8 10  6  9]], 

=10 

=16 

=12 a1 a2

[debug] move action_id=271, action=((7, 0), (6, 0)), 
[debug] current_player=1 (R), 
[debug] board[(7, 0)]=14, board[(6, 0)]=8, 
[debug] board state:
[[ 5  2  4 14]
 [ 3 11 14  1]
 [ 6  9  2 12]
 [13  4 11  3]
 [10 13  1  6]
 [ 5  6  0 13]
 [ 8 13  8  7]
 [14 10  6  9]], 

=10 

=16 

[debug] move action_id=87, action=((1, 3), (1, 2)), 
[debug] current_player=0 (B), 
[debug] board[(1, 3)]=14, board[(1, 2)]=1, 
[debug] board state:
[[ 5  2  4 14]
 [ 3 11  1 14]
 [ 6  9  2 12]
 [13  4 11  3]
 [10 13  1  6]
 [ 5  6  0 13]
 [ 8 13  8  7]
 [14 10  6  9]], 

=10 

=16 

=12 a2 a1

[debug] move action_id=315, action=((6, 0), (7, 0)), 
[debug] current_player=1 (R), 
[debug] board[(6, 0)]=14, board[(7, 0)]=8, 
[debug] board state:
[[ 5  2  4 14]
 [ 3 11  1 14]
 [ 6  9  2 12]
 [13  4 11  3]
 [10 13  1  6]
 [ 5  6  0 13]
 [14 13  8  7]
 [ 8 10  6  9]], 

=10 

=16 

[debug] move action_id=76, action=((1, 2), (1, 3)), 
[debug] current_player=0 (B), 
[debug] board[(1, 2)]=14, board[(1, 3)]=1, 
[debug] board state:
[[ 5  2  4 14]
 [ 3 11 14  1]
 [ 6  9  2 12]
 [13  4 11  3]
 [10 13  1  6]
 [ 5  6  0 13]
 [14 13  8  7]
 [ 8 10  6  9]], 

=10 

=16 

=12 a1 a2

[debug] move action_id=271, action=((7, 0), (6, 0)), 
[debug] current_player=1 (R), 
[debug] board[(7, 0)]=14, board[(6, 0)]=8, 
[debug] board state:
[[ 5  2  4 14]
 [ 3 11 14  1]
 [ 6  9  2 12]
 [13  4 11  3]
 [10 13  1  6]
 [ 5  6  0 13]
 [ 8 13  8  7]
 [14 10  6  9]], 

=10 

=16 

[debug] move action_id=87, action=((1, 3), (1, 2)), 
[debug] current_player=0 (B), 
[debug] board[(1, 3)]=14, board[(1, 2)]=1, 
[debug] board state:
[[ 5  2  4 14]
 [ 3 11  1 14]
 [ 6  9  2 12]
 [13  4 11  3]
 [10 13  1  6]
 [ 5  6  0 13]
 [ 8 13  8  7]
 [14 10  6  9]], 

=10 

=16 

=12 a2 a1

[debug] move action_id=315, action=((6, 0), (7, 0)), 
[debug] current_player=1 (R), 
[debug] board[(6, 0)]=14, board[(7, 0)]=8, 
[debug] board state:
[[ 5  2  4 14]
 [ 3 11  1 14]
 [ 6  9  2 12]
 [13  4 11  3]
 [10 13  1  6]
 [ 5  6  0 13]
 [14 13  8  7]
 [ 8 10  6  9]], 

=10 

=16 

[debug] move action_id=76, action=((1, 2), (1, 3)), 
[debug] current_player=0 (B), 
[debug] board[(1, 2)]=14, board[(1, 3)]=1, 
[debug] board state:
[[ 5  2  4 14]
 [ 3 11 14  1]
 [ 6  9  2 12]
 [13  4 11  3]
 [10 13  1  6]
 [ 5  6  0 13]
 [14 13  8  7]
 [ 8 10  6  9]], 

=10 

=16 

=12 a1 a2

[debug] move action_id=271, action=((7, 0), (6, 0)), 
[debug] current_player=1 (R), 
[debug] board[(7, 0)]=14, board[(6, 0)]=8, 
[debug] board state:
[[ 5  2  4 14]
 [ 3 11 14  1]
 [ 6  9  2 12]
 [13  4 11  3]
 [10 13  1  6]
 [ 5  6  0 13]
 [ 8 13  8  7]
 [14 10  6  9]], 

=10 

=16 

[debug] move action_id=87, action=((1, 3), (1, 2)), 
[debug] current_player=0 (B), 
[debug] board[(1, 3)]=14, board[(1, 2)]=1, 
[debug] board state:
[[ 5  2  4 14]
 [ 3 11  1 14]
 [ 6  9  2 12]
 [13  4 11  3]
 [10 13  1  6]
 [ 5  6  0 13]
 [ 8 13  8  7]
 [14 10  6  9]], 

=10 

=16 


# 10 12 46 48 82 84 118 120 154 156 190 192 226 228 262 264 298 300 334 336 370 372 406 408 442 444 478 480 514 516 550 552 586 588 622 624 658 660 694 696 730 732 766 768 802 804 838 840 #
/home/ntcucsk201/anaconda3/envs/darkchess/lib/python3.10/site-packages/treevalue/tree/integration/torch.py:23: FutureWarning: `torch.utils._pytree._register_pytree_node` is deprecated. Please use `torch.utils._pytree.register_pytree_node` instead.
  register_for_torch(TreeValue)
/home/ntcucsk201/anaconda3/envs/darkchess/lib/python3.10/site-packages/treevalue/tree/integration/torch.py:24: FutureWarning: `torch.utils._pytree._register_pytree_node` is deprecated. Please use `torch.utils._pytree.register_pytree_node` instead.
  register_for_torch(FastTreeValue)
Gym has been unmaintained since 2022 and does not support NumPy 2.0 amongst other critical functionality.
Please upgrade to Gymnasium, the maintained drop-in replacement of Gym, or contact the authors of your software and request that they upgrade.
See the migration guide at https://gymnasium.farama.org/introduction/migration_guide/ for additional information.
[DEBUG] Config loaded successfully
/home/ntcucsk201/DarkChess/LightZero/zoo/board_games/darkchess/muzero_mgtp.py:38: FutureWarning: You are using `torch.load` with `weights_only=False` (the current default value), which uses the default pickle module implicitly. It is possible to construct malicious pickle data which will execute arbitrary code during unpickling (See https://github.com/pytorch/pytorch/blob/main/SECURITY.md#untrusted-models for more details). In a future release, the default value for `weights_only` will be flipped to `True`. This limits the functions that could be executed during unpickling. Arbitrary objects will no longer be allowed to be loaded via this mode unless they are explicitly allowlisted by the user via `torch.serialization.add_safe_globals`. We recommend you start setting `weights_only=True` for any use case where you don't have full control of the loaded file. Please open an issue on GitHub for any issues related to this experimental feature.
  checkpoint = torch.load(model_path, map_location='cpu')
[DEBUG] Model moved to device: cuda:0

###
Account: a0_mu
Mode: MGTP
Path: /home/ntcucsk201/anaconda3/envs/darkchess/bin/python
Arg: /home/ntcucsk201/DarkChess/LightZero/zoo/board_games/darkchess/muzero_mgtp.py -model_path /home/ntcucsk201/DarkChess/LightZero/zoo/board_games/darkchess/data_muzero/darkchess_muzero_ns1000_upc50_rer0.0_bs512/ckpt/ckpt_best.pth.tar -config_path /home/ntcucsk201/DarkChess/LightZero/zoo/board_games/darkchess/data_muzero/darkchess_muzero_ns1000_upc50_rer0.0_bs512/formatted_total_config.py
Name: LightZero_DarkChess
Version: 1.0.0
###
