INITIAL
* 7:34pm Feb 18, 2026
* a1_lightzero vs a0_mu
* 1 2 2 2 2 2 5 1 2 2 2 2 2 5
* X X X X
* X X X X
* X X X X
* X X X X
* X X X X
* X X X X
* X X X X
* X X X X
* first 0
* time 900
* 1. b8(G) b1(m)
* 2. a4(p) c7(P)
* 3. b2(N) a6(R)
* 4. d3(G) b5(P)
* 5. d6(c) a7(n)
* 6. d7(r) c8(M)
* 7. d1(k) c5(P)
* 8. b3(p) a5(p)
* 9. a2(P) d8(r)
* 10. d5(C) b6(K)
* 11. c3(g) c2(M)
* 12. c4(C) a3(m)
* 13. c1(n) a8(g)
* 14. a1(P) b4(c)
* 15. d2(p) b7(p)
* 16. d4(N) b1-a1
* 17. c6(R) a1-b1
* 18. a6-a7 b1-a1
* 19. b2-b1 a1-a2
* 20. b1-a1 c1-b1
* 21. c2-c1 d2-c2
* 22. d3-d2 a8-b8
* 23. d2-d3 d1-d2
* 24. c1-d1 a5-a6
* 25. d1-c1 d2-d1
* 26. a7-a8 a6-a7
* 27. d3-d2 d7-c7
* 28. d2-d3 d1-d2
* 29. c1-d1 c2-c1
* 30. a8-a7 d2-c2
* 31. d1-d2 c1-d1
* 32. a7-a6 b7-a7
* 33. a6-a5 a7-b7
* 34. a5-a6 b7-a7
* 35. a6-a5 a7-b7
* 36. a5-a6 b7-a7
* 37. a6-a5 a7-b7
* 38. a5-a6
* PositionRepetitionDraw,3,4 a1_lightzero Draw 0.500000,0.500000
* Comment 0 0
0. 1771414482879
1. 1771414482879
2. 1771414484063
3. 1771414485073
4. 1771414486065
5. 1771414487075
6. 1771414488018
7. 1771414489028
8. 1771414490021
9. 1771414490981
10. 1771414491926
11. 1771414492933
12. 1771414493879
13. 1771414494886
14. 1771414495832
15. 1771414496839
16. 1771414497787
17. 1771414498793
18. 1771414499792
19. 1771414500796
20. 1771414501747
21. 1771414502750
22. 1771414503753
23. 1771414504754
24. 1771414505707
25. 1771414506709
26. 1771414507662
27. 1771414508664
28. 1771414509667
29. 1771414510669
30. 1771414511673
31. 1771414512676
32. 1771414513628
33. 1771414514630
34. 1771414515583
35. 1771414516585
36. 1771414517586
37. 1771414518589
38. 1771414519539
39. 1771414520542
40. 1771414521543
41. 1771414522545
42. 1771414523497
43. 1771414524499
44. 1771414525451
45. 1771414526453
46. 1771414527405
47. 1771414528407
48. 1771414529408
49. 1771414530411
50. 1771414531413
51. 1771414532414
52. 1771414533367
53. 1771414534367
54. 1771414535320
55. 1771414536320
56. 1771414537324
57. 1771414538324
58. 1771414539277
59. 1771414540278
60. 1771414541230
61. 1771414542232
62. 1771414543184
63. 1771414544186
64. 1771414545138
65. 1771414546139
66. 1771414547091
67. 1771414548092
68. 1771414549094
69. 1771414550095
70. 1771414551097
71. 1771414552097
72. 1771414553051
73. 1771414554051
74. 1771414555005
75. 1771414556002

# 10 27 29 63 65 99 101 135 137 171 173 207 209 243 245 279 281 315 317 351 353 387 389 423 425 459 461 495 497 531 533 567 569 603 605 639 641 675 677 711 713 747 749 783 785 819 821 855 857 891 893 927 929 963 965 999 1001 1035 1037 1071 1073 1107 1109 1143 1145 1179 1181 1215 1217 1251 1253 1287 1289 1323 1325 #
LightZero MGTP Interface Ready
=1 LightZero_DarkChess

=2 1.0.0

=7 

=15 

=14 

[debug] move action_id=11, action=((0, 1), (0, 1)), 
[debug] current_player=1 (B), 
[debug] board[(0, 1)]=1, board[(0, 1)]=1, 
[debug] board state:
[[15  1 15 15]
 [15 15 15 15]
 [15 15 15 15]
 [15 15 15 15]
 [15 15 15 15]
 [15 15 15 15]
 [15 15 15 15]
 [15 15 15 15]], 

=11 

=16 

=12 b1 b1

[debug] move action_id=319, action=((7, 1), (7, 1)), 
[debug] current_player=0 (R), 
[debug] board[(7, 1)]=9, board[(7, 1)]=9, 
[debug] board state:
[[15  1 15 15]
 [15 15 15 15]
 [15 15 15 15]
 [15 15 15 15]
 [15 15 15 15]
 [15 15 15 15]
 [15 15 15 15]
 [15  9 15 15]], 

=11 

=16 

[debug] move action_id=176, action=((4, 0), (4, 0)), 
[debug] current_player=1 (B), 
[debug] board[(4, 0)]=13, board[(4, 0)]=13, 
[debug] board state:
[[15  1 15 15]
 [15 15 15 15]
 [15 15 15 15]
 [15 15 15 15]
 [13 15 15 15]
 [15 15 15 15]
 [15 15 15 15]
 [15  9 15 15]], 

=11 

=16 

=12 c7 c7

[debug] move action_id=66, action=((1, 2), (1, 2)), 
[debug] current_player=0 (R), 
[debug] board[(1, 2)]=6, board[(1, 2)]=6, 
[debug] board state:
[[15  1 15 15]
 [15 15  6 15]
 [15 15 15 15]
 [15 15 15 15]
 [13 15 15 15]
 [15 15 15 15]
 [15 15 15 15]
 [15  9 15 15]], 

=11 

=16 

[debug] move action_id=275, action=((6, 1), (6, 1)), 
[debug] current_player=1 (B), 
[debug] board[(6, 1)]=4, board[(6, 1)]=4, 
[debug] board state:
[[15  1 15 15]
 [15 15  6 15]
 [15 15 15 15]
 [15 15 15 15]
 [13 15 15 15]
 [15 15 15 15]
 [15  4 15 15]
 [15  9 15 15]], 

=11 

=16 

=12 a6 a6

[debug] move action_id=88, action=((2, 0), (2, 0)), 
[debug] current_player=0 (R), 
[debug] board[(2, 0)]=3, board[(2, 0)]=3, 
[debug] board state:
[[15  1 15 15]
 [15 15  6 15]
 [ 3 15 15 15]
 [15 15 15 15]
 [13 15 15 15]
 [15 15 15 15]
 [15  4 15 15]
 [15  9 15 15]], 

=11 

=16 

[debug] move action_id=253, action=((5, 3), (5, 3)), 
[debug] current_player=1 (B), 
[debug] board[(5, 3)]=1, board[(5, 3)]=1, 
[debug] board state:
[[15  1 15 15]
 [15 15  6 15]
 [ 3 15 15 15]
 [15 15 15 15]
 [13 15 15 15]
 [15 15 15  1]
 [15  4 15 15]
 [15  9 15 15]], 

=11 

=16 

=12 b5 b5

[debug] move action_id=143, action=((3, 1), (3, 1)), 
[debug] current_player=0 (R), 
[debug] board[(3, 1)]=6, board[(3, 1)]=6, 
[debug] board state:
[[15  1 15 15]
 [15 15  6 15]
 [ 3 15 15 15]
 [15  6 15 15]
 [13 15 15 15]
 [15 15 15  1]
 [15  4 15 15]
 [15  9 15 15]], 

=11 

=16 

[debug] move action_id=121, action=((2, 3), (2, 3)), 
[debug] current_player=1 (B), 
[debug] board[(2, 3)]=12, board[(2, 3)]=12, 
[debug] board state:
[[15  1 15 15]
 [15 15  6 15]
 [ 3 15 15 12]
 [15  6 15 15]
 [13 15 15 15]
 [15 15 15  1]
 [15  4 15 15]
 [15  9 15 15]], 

=11 

=16 

=12 a7 a7

[debug] move action_id=44, action=((1, 0), (1, 0)), 
[debug] current_player=0 (R), 
[debug] board[(1, 0)]=11, board[(1, 0)]=11, 
[debug] board state:
[[15  1 15 15]
 [11 15  6 15]
 [ 3 15 15 12]
 [15  6 15 15]
 [13 15 15 15]
 [15 15 15  1]
 [15  4 15 15]
 [15  9 15 15]], 

=11 

=16 

[debug] move action_id=77, action=((1, 3), (1, 3)), 
[debug] current_player=1 (B), 
[debug] board[(1, 3)]=10, board[(1, 3)]=10, 
[debug] board state:
[[15  1 15 15]
 [11 15  6 10]
 [ 3 15 15 12]
 [15  6 15 15]
 [13 15 15 15]
 [15 15 15  1]
 [15  4 15 15]
 [15  9 15 15]], 

=11 

=16 

=12 c8 c8

[debug] move action_id=22, action=((0, 2), (0, 2)), 
[debug] current_player=0 (R), 
[debug] board[(0, 2)]=2, board[(0, 2)]=2, 
[debug] board state:
[[15  1  2 15]
 [11 15  6 10]
 [ 3 15 15 12]
 [15  6 15 15]
 [13 15 15 15]
 [15 15 15  1]
 [15  4 15 15]
 [15  9 15 15]], 

=11 

=16 

[debug] move action_id=341, action=((7, 3), (7, 3)), 
[debug] current_player=1 (B), 
[debug] board[(7, 3)]=7, board[(7, 3)]=7, 
[debug] board state:
[[15  1  2 15]
 [11 15  6 10]
 [ 3 15 15 12]
 [15  6 15 15]
 [13 15 15 15]
 [15 15 15  1]
 [15  4 15 15]
 [15  9 15  7]], 

=11 

=16 

=12 c5 c5

[debug] move action_id=154, action=((3, 2), (3, 2)), 
[debug] current_player=0 (R), 
[debug] board[(3, 2)]=6, board[(3, 2)]=6, 
[debug] board state:
[[15  1  2 15]
 [11 15  6 10]
 [ 3 15 15 12]
 [15  6  6 15]
 [13 15 15 15]
 [15 15 15  1]
 [15  4 15 15]
 [15  9 15  7]], 

=11 

=16 

[debug] move action_id=231, action=((5, 1), (5, 1)), 
[debug] current_player=1 (B), 
[debug] board[(5, 1)]=13, board[(5, 1)]=13, 
[debug] board state:
[[15  1  2 15]
 [11 15  6 10]
 [ 3 15 15 12]
 [15  6  6 15]
 [13 15 15 15]
 [15 13 15  1]
 [15  4 15 15]
 [15  9 15  7]], 

=11 

=16 

=12 a5 a5

[debug] move action_id=132, action=((3, 0), (3, 0)), 
[debug] current_player=0 (R), 
[debug] board[(3, 0)]=13, board[(3, 0)]=13, 
[debug] board state:
[[15  1  2 15]
 [11 15  6 10]
 [ 3 15 15 12]
 [13  6  6 15]
 [13 15 15 15]
 [15 13 15  1]
 [15  4 15 15]
 [15  9 15  7]], 

=11 

=16 

[debug] move action_id=264, action=((6, 0), (6, 0)), 
[debug] current_player=1 (B), 
[debug] board[(6, 0)]=6, board[(6, 0)]=6, 
[debug] board state:
[[15  1  2 15]
 [11 15  6 10]
 [ 3 15 15 12]
 [13  6  6 15]
 [13 15 15 15]
 [15 13 15  1]
 [ 6  4 15 15]
 [15  9 15  7]], 

=11 

=16 

=12 d8 d8

[debug] move action_id=33, action=((0, 3), (0, 3)), 
[debug] current_player=0 (R), 
[debug] board[(0, 3)]=10, board[(0, 3)]=10, 
[debug] board state:
[[15  1  2 10]
 [11 15  6 10]
 [ 3 15 15 12]
 [13  6  6 15]
 [13 15 15 15]
 [15 13 15  1]
 [ 6  4 15 15]
 [15  9 15  7]], 

=11 

=16 

[debug] move action_id=165, action=((3, 3), (3, 3)), 
[debug] current_player=1 (B), 
[debug] board[(3, 3)]=5, board[(3, 3)]=5, 
[debug] board state:
[[15  1  2 10]
 [11 15  6 10]
 [ 3 15 15 12]
 [13  6  6  5]
 [13 15 15 15]
 [15 13 15  1]
 [ 6  4 15 15]
 [15  9 15  7]], 

=11 

=16 

=12 b6 b6

[debug] move action_id=99, action=((2, 1), (2, 1)), 
[debug] current_player=0 (R), 
[debug] board[(2, 1)]=0, board[(2, 1)]=0, 
[debug] board state:
[[15  1  2 10]
 [11 15  6 10]
 [ 3  0 15 12]
 [13  6  6  5]
 [13 15 15 15]
 [15 13 15  1]
 [ 6  4 15 15]
 [15  9 15  7]], 

=11 

=16 

[debug] move action_id=242, action=((5, 2), (5, 2)), 
[debug] current_player=1 (B), 
[debug] board[(5, 2)]=8, board[(5, 2)]=8, 
[debug] board state:
[[15  1  2 10]
 [11 15  6 10]
 [ 3  0 15 12]
 [13  6  6  5]
 [13 15 15 15]
 [15 13  8  1]
 [ 6  4 15 15]
 [15  9 15  7]], 

=11 

=16 

=12 c2 c2

[debug] move action_id=286, action=((6, 2), (6, 2)), 
[debug] current_player=0 (R), 
[debug] board[(6, 2)]=2, board[(6, 2)]=2, 
[debug] board state:
[[15  1  2 10]
 [11 15  6 10]
 [ 3  0 15 12]
 [13  6  6  5]
 [13 15 15 15]
 [15 13  8  1]
 [ 6  4  2 15]
 [15  9 15  7]], 

=11 

=16 

[debug] move action_id=198, action=((4, 2), (4, 2)), 
[debug] current_player=1 (B), 
[debug] board[(4, 2)]=5, board[(4, 2)]=5, 
[debug] board state:
[[15  1  2 10]
 [11 15  6 10]
 [ 3  0 15 12]
 [13  6  6  5]
 [13 15  5 15]
 [15 13  8  1]
 [ 6  4  2 15]
 [15  9 15  7]], 

=11 

=16 

=12 a3 a3

[debug] move action_id=220, action=((5, 0), (5, 0)), 
[debug] current_player=0 (R), 
[debug] board[(5, 0)]=9, board[(5, 0)]=9, 
[debug] board state:
[[15  1  2 10]
 [11 15  6 10]
 [ 3  0 15 12]
 [13  6  6  5]
 [13 15  5 15]
 [ 9 13  8  1]
 [ 6  4  2 15]
 [15  9 15  7]], 

=11 

=16 

[debug] move action_id=330, action=((7, 2), (7, 2)), 
[debug] current_player=1 (B), 
[debug] board[(7, 2)]=11, board[(7, 2)]=11, 
[debug] board state:
[[15  1  2 10]
 [11 15  6 10]
 [ 3  0 15 12]
 [13  6  6  5]
 [13 15  5 15]
 [ 9 13  8  1]
 [ 6  4  2 15]
 [15  9 11  7]], 

=11 

=16 

=12 a8 a8

[debug] move action_id=0, action=((0, 0), (0, 0)), 
[debug] current_player=0 (R), 
[debug] board[(0, 0)]=8, board[(0, 0)]=8, 
[debug] board state:
[[ 8  1  2 10]
 [11 15  6 10]
 [ 3  0 15 12]
 [13  6  6  5]
 [13 15  5 15]
 [ 9 13  8  1]
 [ 6  4  2 15]
 [15  9 11  7]], 

=11 

=16 

[debug] move action_id=308, action=((7, 0), (7, 0)), 
[debug] current_player=1 (B), 
[debug] board[(7, 0)]=6, board[(7, 0)]=6, 
[debug] board state:
[[ 8  1  2 10]
 [11 15  6 10]
 [ 3  0 15 12]
 [13  6  6  5]
 [13 15  5 15]
 [ 9 13  8  1]
 [ 6  4  2 15]
 [ 6  9 11  7]], 

=11 

=16 

=12 b4 b4

[debug] move action_id=187, action=((4, 1), (4, 1)), 
[debug] current_player=0 (R), 
[debug] board[(4, 1)]=12, board[(4, 1)]=12, 
[debug] board state:
[[ 8  1  2 10]
 [11 15  6 10]
 [ 3  0 15 12]
 [13  6  6  5]
 [13 12  5 15]
 [ 9 13  8  1]
 [ 6  4  2 15]
 [ 6  9 11  7]], 

=11 

=16 

[debug] move action_id=297, action=((6, 3), (6, 3)), 
[debug] current_player=1 (B), 
[debug] board[(6, 3)]=13, board[(6, 3)]=13, 
[debug] board state:
[[ 8  1  2 10]
 [11 15  6 10]
 [ 3  0 15 12]
 [13  6  6  5]
 [13 12  5 15]
 [ 9 13  8  1]
 [ 6  4  2 13]
 [ 6  9 11  7]], 

=11 

=16 

=12 b7 b7

[debug] move action_id=55, action=((1, 1), (1, 1)), 
[debug] current_player=0 (R), 
[debug] board[(1, 1)]=13, board[(1, 1)]=13, 
[debug] board state:
[[ 8  1  2 10]
 [11 13  6 10]
 [ 3  0 15 12]
 [13  6  6  5]
 [13 12  5 15]
 [ 9 13  8  1]
 [ 6  4  2 13]
 [ 6  9 11  7]], 

=11 

=16 

[debug] move action_id=209, action=((4, 3), (4, 3)), 
[debug] current_player=1 (B), 
[debug] board[(4, 3)]=4, board[(4, 3)]=4, 
[debug] board state:
[[ 8  1  2 10]
 [11 13  6 10]
 [ 3  0 15 12]
 [13  6  6  5]
 [13 12  5  4]
 [ 9 13  8  1]
 [ 6  4  2 13]
 [ 6  9 11  7]], 

=11 

=16 

=12 b1 a1

[debug] move action_id=327, action=((7, 1), (7, 0)), 
[debug] current_player=0 (R), 
[debug] board[(7, 1)]=14, board[(7, 0)]=9, 
[debug] board state:
[[ 8  1  2 10]
 [11 13  6 10]
 [ 3  0 15 12]
 [13  6  6  5]
 [13 12  5  4]
 [ 9 13  8  1]
 [ 6  4  2 13]
 [ 9 14 11  7]], 

=10 

=16 

[debug] move action_id=110, action=((2, 2), (2, 2)), 
[debug] current_player=1 (B), 
[debug] board[(2, 2)]=3, board[(2, 2)]=3, 
[debug] board state:
[[ 8  1  2 10]
 [11 13  6 10]
 [ 3  0  3 12]
 [13  6  6  5]
 [13 12  5  4]
 [ 9 13  8  1]
 [ 6  4  2 13]
 [ 9 14 11  7]], 

=11 

=16 

=12 a1 b1

[debug] move action_id=316, action=((7, 0), (7, 1)), 
[debug] current_player=0 (R), 
[debug] board[(7, 0)]=14, board[(7, 1)]=9, 
[debug] board state:
[[ 8  1  2 10]
 [11 13  6 10]
 [ 3  0  3 12]
 [13  6  6  5]
 [13 12  5  4]
 [ 9 13  8  1]
 [ 6  4  2 13]
 [14  9 11  7]], 

=10 

=16 

[debug] move action_id=46, action=((2, 0), (1, 0)), 
[debug] current_player=1 (B), 
[debug] board[(2, 0)]=14, board[(1, 0)]=3, 
[debug] board state:
[[ 8  1  2 10]
 [ 3 13  6 10]
 [14  0  3 12]
 [13  6  6  5]
 [13 12  5  4]
 [ 9 13  8  1]
 [ 6  4  2 13]
 [14  9 11  7]], 

=10 

=16 

=12 b1 a1

[debug] move action_id=327, action=((7, 1), (7, 0)), 
[debug] current_player=0 (R), 
[debug] board[(7, 1)]=14, board[(7, 0)]=9, 
[debug] board state:
[[ 8  1  2 10]
 [ 3 13  6 10]
 [14  0  3 12]
 [13  6  6  5]
 [13 12  5  4]
 [ 9 13  8  1]
 [ 6  4  2 13]
 [ 9 14 11  7]], 

=10 

=16 

[debug] move action_id=326, action=((6, 1), (7, 1)), 
[debug] current_player=1 (B), 
[debug] board[(6, 1)]=14, board[(7, 1)]=4, 
[debug] board state:
[[ 8  1  2 10]
 [ 3 13  6 10]
 [14  0  3 12]
 [13  6  6  5]
 [13 12  5  4]
 [ 9 13  8  1]
 [ 6 14  2 13]
 [ 9  4 11  7]], 

=10 

=16 

=12 a1 a2

[debug] move action_id=271, action=((7, 0), (6, 0)), 
[debug] current_player=0 (R), 
[debug] board[(7, 0)]=14, board[(6, 0)]=9, 
[debug] board state:
[[ 8  1  2 10]
 [ 3 13  6 10]
 [14  0  3 12]
 [13  6  6  5]
 [13 12  5  4]
 [ 9 13  8  1]
 [ 9 14  2 13]
 [14  4 11  7]], 

=10 

=16 

[debug] move action_id=327, action=((7, 1), (7, 0)), 
[debug] current_player=1 (B), 
[debug] board[(7, 1)]=14, board[(7, 0)]=4, 
[debug] board state:
[[ 8  1  2 10]
 [ 3 13  6 10]
 [14  0  3 12]
 [13  6  6  5]
 [13 12  5  4]
 [ 9 13  8  1]
 [ 9 14  2 13]
 [ 4 14 11  7]], 

=10 

=16 

=12 c1 b1

[debug] move action_id=339, action=((7, 2), (7, 1)), 
[debug] current_player=0 (R), 
[debug] board[(7, 2)]=14, board[(7, 1)]=11, 
[debug] board state:
[[ 8  1  2 10]
 [ 3 13  6 10]
 [14  0  3 12]
 [13  6  6  5]
 [13 12  5  4]
 [ 9 13  8  1]
 [ 9 14  2 13]
 [ 4 11 14  7]], 

=10 

=16 

[debug] move action_id=337, action=((6, 2), (7, 2)), 
[debug] current_player=1 (B), 
[debug] board[(6, 2)]=14, board[(7, 2)]=2, 
[debug] board state:
[[ 8  1  2 10]
 [ 3 13  6 10]
 [14  0  3 12]
 [13  6  6  5]
 [13 12  5  4]
 [ 9 13  8  1]
 [ 9 14 14 13]
 [ 4 11  2  7]], 

=10 

=16 

=12 d2 c2

[debug] move action_id=307, action=((6, 3), (6, 2)), 
[debug] current_player=0 (R), 
[debug] board[(6, 3)]=14, board[(6, 2)]=13, 
[debug] board state:
[[ 8  1  2 10]
 [ 3 13  6 10]
 [14  0  3 12]
 [13  6  6  5]
 [13 12  5  4]
 [ 9 13  8  1]
 [ 9 14 13 14]
 [ 4 11  2  7]], 

=10 

=16 

[debug] move action_id=303, action=((5, 3), (6, 3)), 
[debug] current_player=1 (B), 
[debug] board[(5, 3)]=14, board[(6, 3)]=1, 
[debug] board state:
[[ 8  1  2 10]
 [ 3 13  6 10]
 [14  0  3 12]
 [13  6  6  5]
 [13 12  5  4]
 [ 9 13  8 14]
 [ 9 14 13  1]
 [ 4 11  2  7]], 

=10 

=16 

=12 a8 b8

[debug] move action_id=8, action=((0, 0), (0, 1)), 
[debug] current_player=0 (R), 
[debug] board[(0, 0)]=14, board[(0, 1)]=8, 
[debug] board state:
[[14  8  2 10]
 [ 3 13  6 10]
 [14  0  3 12]
 [13  6  6  5]
 [13 12  5  4]
 [ 9 13  8 14]
 [ 9 14 13  1]
 [ 4 11  2  7]], 

=10 

=16 

[debug] move action_id=259, action=((6, 3), (5, 3)), 
[debug] current_player=1 (B), 
[debug] board[(6, 3)]=14, board[(5, 3)]=1, 
[debug] board state:
[[14  8  2 10]
 [ 3 13  6 10]
 [14  0  3 12]
 [13  6  6  5]
 [13 12  5  4]
 [ 9 13  8  1]
 [ 9 14 13 14]
 [ 4 11  2  7]], 

=10 

=16 

=12 d1 d2

[debug] move action_id=304, action=((7, 3), (6, 3)), 
[debug] current_player=0 (R), 
[debug] board[(7, 3)]=14, board[(6, 3)]=7, 
[debug] board state:
[[14  8  2 10]
 [ 3 13  6 10]
 [14  0  3 12]
 [13  6  6  5]
 [13 12  5  4]
 [ 9 13  8  1]
 [ 9 14 13  7]
 [ 4 11  2 14]], 

=10 

=16 

[debug] move action_id=340, action=((7, 2), (7, 3)), 
[debug] current_player=1 (B), 
[debug] board[(7, 2)]=14, board[(7, 3)]=2, 
[debug] board state:
[[14  8  2 10]
 [ 3 13  6 10]
 [14  0  3 12]
 [13  6  6  5]
 [13 12  5  4]
 [ 9 13  8  1]
 [ 9 14 13  7]
 [ 4 11 14  2]], 

=10 

=16 

=12 a5 a6

[debug] move action_id=91, action=((3, 0), (2, 0)), 
[debug] current_player=0 (R), 
[debug] board[(3, 0)]=14, board[(2, 0)]=13, 
[debug] board state:
[[14  8  2 10]
 [ 3 13  6 10]
 [13  0  3 12]
 [14  6  6  5]
 [13 12  5  4]
 [ 9 13  8  1]
 [ 9 14 13  7]
 [ 4 11 14  2]], 

=10 

=16 

[debug] move action_id=351, action=((7, 3), (7, 2)), 
[debug] current_player=1 (B), 
[debug] board[(7, 3)]=14, board[(7, 2)]=2, 
[debug] board state:
[[14  8  2 10]
 [ 3 13  6 10]
 [13  0  3 12]
 [14  6  6  5]
 [13 12  5  4]
 [ 9 13  8  1]
 [ 9 14 13  7]
 [ 4 11  2 14]], 

=10 

=16 

=12 d2 d1

[debug] move action_id=348, action=((6, 3), (7, 3)), 
[debug] current_player=0 (R), 
[debug] board[(6, 3)]=14, board[(7, 3)]=7, 
[debug] board state:
[[14  8  2 10]
 [ 3 13  6 10]
 [13  0  3 12]
 [14  6  6  5]
 [13 12  5  4]
 [ 9 13  8  1]
 [ 9 14 13 14]
 [ 4 11  2  7]], 

=10 

=16 

[debug] move action_id=1, action=((1, 0), (0, 0)), 
[debug] current_player=1 (B), 
[debug] board[(1, 0)]=14, board[(0, 0)]=3, 
[debug] board state:
[[ 3  8  2 10]
 [14 13  6 10]
 [13  0  3 12]
 [14  6  6  5]
 [13 12  5  4]
 [ 9 13  8  1]
 [ 9 14 13 14]
 [ 4 11  2  7]], 

=10 

=16 

=12 a6 a7

[debug] move action_id=46, action=((2, 0), (1, 0)), 
[debug] current_player=0 (R), 
[debug] board[(2, 0)]=14, board[(1, 0)]=13, 
[debug] board state:
[[ 3  8  2 10]
 [13 13  6 10]
 [14  0  3 12]
 [14  6  6  5]
 [13 12  5  4]
 [ 9 13  8  1]
 [ 9 14 13 14]
 [ 4 11  2  7]], 

=10 

=16 

[debug] move action_id=303, action=((5, 3), (6, 3)), 
[debug] current_player=1 (B), 
[debug] board[(5, 3)]=14, board[(6, 3)]=1, 
[debug] board state:
[[ 3  8  2 10]
 [13 13  6 10]
 [14  0  3 12]
 [14  6  6  5]
 [13 12  5  4]
 [ 9 13  8 14]
 [ 9 14 13  1]
 [ 4 11  2  7]], 

=10 

=16 

=12 d7 c7

[debug] move action_id=87, action=((1, 3), (1, 2)), 
[debug] current_player=0 (R), 
[debug] board[(1, 3)]=14, board[(1, 2)]=10, 
[debug] board state:
[[ 3  8  2 10]
 [13 13 10 14]
 [14  0  3 12]
 [14  6  6  5]
 [13 12  5  4]
 [ 9 13  8 14]
 [ 9 14 13  1]
 [ 4 11  2  7]], 

=10 

=16 

[debug] move action_id=259, action=((6, 3), (5, 3)), 
[debug] current_player=1 (B), 
[debug] board[(6, 3)]=14, board[(5, 3)]=1, 
[debug] board state:
[[ 3  8  2 10]
 [13 13 10 14]
 [14  0  3 12]
 [14  6  6  5]
 [13 12  5  4]
 [ 9 13  8  1]
 [ 9 14 13 14]
 [ 4 11  2  7]], 

=10 

=16 

=12 d1 d2

[debug] move action_id=304, action=((7, 3), (6, 3)), 
[debug] current_player=0 (R), 
[debug] board[(7, 3)]=14, board[(6, 3)]=7, 
[debug] board state:
[[ 3  8  2 10]
 [13 13 10 14]
 [14  0  3 12]
 [14  6  6  5]
 [13 12  5  4]
 [ 9 13  8  1]
 [ 9 14 13  7]
 [ 4 11  2 14]], 

=10 

=16 

[debug] move action_id=340, action=((7, 2), (7, 3)), 
[debug] current_player=1 (B), 
[debug] board[(7, 2)]=14, board[(7, 3)]=2, 
[debug] board state:
[[ 3  8  2 10]
 [13 13 10 14]
 [14  0  3 12]
 [14  6  6  5]
 [13 12  5  4]
 [ 9 13  8  1]
 [ 9 14 13  7]
 [ 4 11 14  2]], 

=10 

=16 

=12 c2 c1

[debug] move action_id=337, action=((6, 2), (7, 2)), 
[debug] current_player=0 (R), 
[debug] board[(6, 2)]=14, board[(7, 2)]=13, 
[debug] board state:
[[ 3  8  2 10]
 [13 13 10 14]
 [14  0  3 12]
 [14  6  6  5]
 [13 12  5  4]
 [ 9 13  8  1]
 [ 9 14 14  7]
 [ 4 11 13  2]], 

=10 

=16 

[debug] move action_id=45, action=((0, 0), (1, 0)), 
[debug] current_player=1 (B), 
[debug] board[(0, 0)]=14, board[(1, 0)]=3, 
[debug] board state:
[[14  8  2 10]
 [ 3 13 10 14]
 [14  0  3 12]
 [14  6  6  5]
 [13 12  5  4]
 [ 9 13  8  1]
 [ 9 14 14  7]
 [ 4 11 13  2]], 

=10 

=16 

=12 d2 c2

[debug] move action_id=307, action=((6, 3), (6, 2)), 
[debug] current_player=0 (R), 
[debug] board[(6, 3)]=14, board[(6, 2)]=7, 
