INITIAL
* 7:39pm Feb 18, 2026
* a1_lightzero vs a0_mu
* 1 2 2 2 2 2 5 1 2 2 2 2 2 5
* X X X X
* X X X X
* X X X X
* X X X X
* X X X X
* X X X X
* X X X X
* X X X X
* first 1
* time 900
* 1. b8(p) b1(P)
* 2. c7(N) a6(K)
* 3. d3(p) b5(P)
* 4. b2(p) d6(r)
* 5. d7(M) a3(R)
* 6. d1(n) c8(g)
* 7. a4(k) a7(n)
* 8. d5(R) b6(P)
* 9. a5(G) c2(P)
* 10. c4(M) b3(p)
* 11. b4(c) c3(N)
* 12. d4(c) a8(C)
* 13. a1(C) b7(r)
* 14. c6(g) d8(m)
* 15. c5(G) d2(P)
* 16. c1(p) a2(m)
* 17. d1-d2 c4-b4
* 18. d2-d1 c5-c4
* 19. d1-d2 c4-c5
* 20. d2-d1 c5-c4
* 21. d1-d2 c4-c5
* 22. d2-d1 c5-c4
* 23. d1-d2 c4-c5
* PositionRepetitionDraw,3,4 a1_lightzero Draw 0.500000,0.500000
* Comment 0 0
0. 1771414770358
1. 1771414770358
2. 1771414771497
3. 1771414772454
4. 1771414773401
5. 1771414774410
6. 1771414775356
7. 1771414776315
8. 1771414777260
9. 1771414778270
10. 1771414779214
11. 1771414780226
12. 1771414781219
13. 1771414782231
14. 1771414783222
15. 1771414784237
16. 1771414785226
17. 1771414786242
18. 1771414787230
19. 1771414788248
20. 1771414789234
21. 1771414790253
22. 1771414791236
23. 1771414792258
24. 1771414793239
25. 1771414794263
26. 1771414795292
27. 1771414796319
28. 1771414797295
29. 1771414798324
30. 1771414799298
31. 1771414800329
32. 1771414801303
33. 1771414802335
34. 1771414803307
35. 1771414804341
36. 1771414805361
37. 1771414806396
38. 1771414807364
39. 1771414808402
40. 1771414809367
41. 1771414810407
42. 1771414811371
43. 1771414812363
44. 1771414813326
45. 1771414814368
46. 1771414815330

# 10 27 29 63 65 99 101 135 137 171 173 207 209 243 245 279 281 315 317 351 353 387 389 423 425 459 461 495 497 531 533 567 569 603 605 639 641 675 677 711 713 747 749 783 785 819 821 #
LightZero MGTP Interface Ready
=1 LightZero_DarkChess

=2 1.0.0

=7 

=15 

=14 

[debug] move action_id=11, action=((0, 1), (0, 1)), 
[debug] current_player=1 (R), 
[debug] board[(0, 1)]=13, board[(0, 1)]=13, 
[debug] board state:
[[15 13 15 15]
 [15 15 15 15]
 [15 15 15 15]
 [15 15 15 15]
 [15 15 15 15]
 [15 15 15 15]
 [15 15 15 15]
 [15 15 15 15]], 

=11 

=16 

=12 b1 b1

[debug] move action_id=319, action=((7, 1), (7, 1)), 
[debug] current_player=0 (B), 
[debug] board[(7, 1)]=6, board[(7, 1)]=6, 
[debug] board state:
[[15 13 15 15]
 [15 15 15 15]
 [15 15 15 15]
 [15 15 15 15]
 [15 15 15 15]
 [15 15 15 15]
 [15 15 15 15]
 [15  6 15 15]], 

=11 

=16 

[debug] move action_id=66, action=((1, 2), (1, 2)), 
[debug] current_player=1 (R), 
[debug] board[(1, 2)]=4, board[(1, 2)]=4, 
[debug] board state:
[[15 13 15 15]
 [15 15  4 15]
 [15 15 15 15]
 [15 15 15 15]
 [15 15 15 15]
 [15 15 15 15]
 [15 15 15 15]
 [15  6 15 15]], 

=11 

=16 

=12 a6 a6

[debug] move action_id=88, action=((2, 0), (2, 0)), 
[debug] current_player=0 (B), 
[debug] board[(2, 0)]=0, board[(2, 0)]=0, 
[debug] board state:
[[15 13 15 15]
 [15 15  4 15]
 [ 0 15 15 15]
 [15 15 15 15]
 [15 15 15 15]
 [15 15 15 15]
 [15 15 15 15]
 [15  6 15 15]], 

=11 

=16 

[debug] move action_id=253, action=((5, 3), (5, 3)), 
[debug] current_player=1 (R), 
[debug] board[(5, 3)]=13, board[(5, 3)]=13, 
[debug] board state:
[[15 13 15 15]
 [15 15  4 15]
 [ 0 15 15 15]
 [15 15 15 15]
 [15 15 15 15]
 [15 15 15 13]
 [15 15 15 15]
 [15  6 15 15]], 

=11 

=16 

=12 b5 b5

[debug] move action_id=143, action=((3, 1), (3, 1)), 
[debug] current_player=0 (B), 
[debug] board[(3, 1)]=6, board[(3, 1)]=6, 
[debug] board state:
[[15 13 15 15]
 [15 15  4 15]
 [ 0 15 15 15]
 [15  6 15 15]
 [15 15 15 15]
 [15 15 15 13]
 [15 15 15 15]
 [15  6 15 15]], 

=11 

=16 

[debug] move action_id=275, action=((6, 1), (6, 1)), 
[debug] current_player=1 (R), 
[debug] board[(6, 1)]=13, board[(6, 1)]=13, 
[debug] board state:
[[15 13 15 15]
 [15 15  4 15]
 [ 0 15 15 15]
 [15  6 15 15]
 [15 15 15 15]
 [15 15 15 13]
 [15 13 15 15]
 [15  6 15 15]], 

=11 

=16 

=12 d6 d6

[debug] move action_id=121, action=((2, 3), (2, 3)), 
[debug] current_player=0 (B), 
[debug] board[(2, 3)]=10, board[(2, 3)]=10, 
[debug] board state:
[[15 13 15 15]
 [15 15  4 15]
 [ 0 15 15 10]
 [15  6 15 15]
 [15 15 15 15]
 [15 15 15 13]
 [15 13 15 15]
 [15  6 15 15]], 

=11 

=16 

[debug] move action_id=77, action=((1, 3), (1, 3)), 
[debug] current_player=1 (R), 
[debug] board[(1, 3)]=2, board[(1, 3)]=2, 
[debug] board state:
[[15 13 15 15]
 [15 15  4  2]
 [ 0 15 15 10]
 [15  6 15 15]
 [15 15 15 15]
 [15 15 15 13]
 [15 13 15 15]
 [15  6 15 15]], 

=11 

=16 

=12 a3 a3

[debug] move action_id=220, action=((5, 0), (5, 0)), 
[debug] current_player=0 (B), 
[debug] board[(5, 0)]=3, board[(5, 0)]=3, 
[debug] board state:
[[15 13 15 15]
 [15 15  4  2]
 [ 0 15 15 10]
 [15  6 15 15]
 [15 15 15 15]
 [ 3 15 15 13]
 [15 13 15 15]
 [15  6 15 15]], 

=11 

=16 

[debug] move action_id=341, action=((7, 3), (7, 3)), 
[debug] current_player=1 (R), 
[debug] board[(7, 3)]=11, board[(7, 3)]=11, 
[debug] board state:
[[15 13 15 15]
 [15 15  4  2]
 [ 0 15 15 10]
 [15  6 15 15]
 [15 15 15 15]
 [ 3 15 15 13]
 [15 13 15 15]
 [15  6 15 11]], 

=11 

=16 

=12 c8 c8

[debug] move action_id=22, action=((0, 2), (0, 2)), 
[debug] current_player=0 (B), 
[debug] board[(0, 2)]=8, board[(0, 2)]=8, 
[debug] board state:
[[15 13  8 15]
 [15 15  4  2]
 [ 0 15 15 10]
 [15  6 15 15]
 [15 15 15 15]
 [ 3 15 15 13]
 [15 13 15 15]
 [15  6 15 11]], 

=11 

=16 

[debug] move action_id=176, action=((4, 0), (4, 0)), 
[debug] current_player=1 (R), 
[debug] board[(4, 0)]=7, board[(4, 0)]=7, 
[debug] board state:
[[15 13  8 15]
 [15 15  4  2]
 [ 0 15 15 10]
 [15  6 15 15]
 [ 7 15 15 15]
 [ 3 15 15 13]
 [15 13 15 15]
 [15  6 15 11]], 

=11 

=16 

=12 a7 a7

[debug] move action_id=44, action=((1, 0), (1, 0)), 
[debug] current_player=0 (B), 
[debug] board[(1, 0)]=11, board[(1, 0)]=11, 
[debug] board state:
[[15 13  8 15]
 [11 15  4  2]
 [ 0 15 15 10]
 [15  6 15 15]
 [ 7 15 15 15]
 [ 3 15 15 13]
 [15 13 15 15]
 [15  6 15 11]], 

=11 

=16 

[debug] move action_id=165, action=((3, 3), (3, 3)), 
[debug] current_player=1 (R), 
[debug] board[(3, 3)]=3, board[(3, 3)]=3, 
[debug] board state:
[[15 13  8 15]
 [11 15  4  2]
 [ 0 15 15 10]
 [15  6 15  3]
 [ 7 15 15 15]
 [ 3 15 15 13]
 [15 13 15 15]
 [15  6 15 11]], 

=11 

=16 

=12 b6 b6

[debug] move action_id=99, action=((2, 1), (2, 1)), 
[debug] current_player=0 (B), 
[debug] board[(2, 1)]=6, board[(2, 1)]=6, 
[debug] board state:
[[15 13  8 15]
 [11 15  4  2]
 [ 0  6 15 10]
 [15  6 15  3]
 [ 7 15 15 15]
 [ 3 15 15 13]
 [15 13 15 15]
 [15  6 15 11]], 

=11 

=16 

[debug] move action_id=132, action=((3, 0), (3, 0)), 
[debug] current_player=1 (R), 
[debug] board[(3, 0)]=1, board[(3, 0)]=1, 
[debug] board state:
[[15 13  8 15]
 [11 15  4  2]
 [ 0  6 15 10]
 [ 1  6 15  3]
 [ 7 15 15 15]
 [ 3 15 15 13]
 [15 13 15 15]
 [15  6 15 11]], 

=11 

=16 

=12 c2 c2

[debug] move action_id=286, action=((6, 2), (6, 2)), 
[debug] current_player=0 (B), 
[debug] board[(6, 2)]=6, board[(6, 2)]=6, 
[debug] board state:
[[15 13  8 15]
 [11 15  4  2]
 [ 0  6 15 10]
 [ 1  6 15  3]
 [ 7 15 15 15]
 [ 3 15 15 13]
 [15 13  6 15]
 [15  6 15 11]], 

=11 

=16 

[debug] move action_id=198, action=((4, 2), (4, 2)), 
[debug] current_player=1 (R), 
[debug] board[(4, 2)]=2, board[(4, 2)]=2, 
[debug] board state:
[[15 13  8 15]
 [11 15  4  2]
 [ 0  6 15 10]
 [ 1  6 15  3]
 [ 7 15  2 15]
 [ 3 15 15 13]
 [15 13  6 15]
 [15  6 15 11]], 

=11 

=16 

=12 b3 b3

[debug] move action_id=231, action=((5, 1), (5, 1)), 
[debug] current_player=0 (B), 
[debug] board[(5, 1)]=13, board[(5, 1)]=13, 
[debug] board state:
[[15 13  8 15]
 [11 15  4  2]
 [ 0  6 15 10]
 [ 1  6 15  3]
 [ 7 15  2 15]
 [ 3 13 15 13]
 [15 13  6 15]
 [15  6 15 11]], 

=11 

=16 

[debug] move action_id=187, action=((4, 1), (4, 1)), 
[debug] current_player=1 (R), 
[debug] board[(4, 1)]=12, board[(4, 1)]=12, 
[debug] board state:
[[15 13  8 15]
 [11 15  4  2]
 [ 0  6 15 10]
 [ 1  6 15  3]
 [ 7 12  2 15]
 [ 3 13 15 13]
 [15 13  6 15]
 [15  6 15 11]], 

=11 

=16 

=12 c3 c3

[debug] move action_id=242, action=((5, 2), (5, 2)), 
[debug] current_player=0 (B), 
[debug] board[(5, 2)]=4, board[(5, 2)]=4, 
[debug] board state:
[[15 13  8 15]
 [11 15  4  2]
 [ 0  6 15 10]
 [ 1  6 15  3]
 [ 7 12  2 15]
 [ 3 13  4 13]
 [15 13  6 15]
 [15  6 15 11]], 

=11 

=16 

[debug] move action_id=209, action=((4, 3), (4, 3)), 
[debug] current_player=1 (R), 
[debug] board[(4, 3)]=12, board[(4, 3)]=12, 
[debug] board state:
[[15 13  8 15]
 [11 15  4  2]
 [ 0  6 15 10]
 [ 1  6 15  3]
 [ 7 12  2 12]
 [ 3 13  4 13]
 [15 13  6 15]
 [15  6 15 11]], 

=11 

=16 

=12 a8 a8

[debug] move action_id=0, action=((0, 0), (0, 0)), 
[debug] current_player=0 (B), 
[debug] board[(0, 0)]=5, board[(0, 0)]=5, 
[debug] board state:
[[ 5 13  8 15]
 [11 15  4  2]
 [ 0  6 15 10]
 [ 1  6 15  3]
 [ 7 12  2 12]
 [ 3 13  4 13]
 [15 13  6 15]
 [15  6 15 11]], 

=11 

=16 

[debug] move action_id=308, action=((7, 0), (7, 0)), 
[debug] current_player=1 (R), 
[debug] board[(7, 0)]=5, board[(7, 0)]=5, 
[debug] board state:
[[ 5 13  8 15]
 [11 15  4  2]
 [ 0  6 15 10]
 [ 1  6 15  3]
 [ 7 12  2 12]
 [ 3 13  4 13]
 [15 13  6 15]
 [ 5  6 15 11]], 

=11 

=16 

=12 b7 b7

[debug] move action_id=55, action=((1, 1), (1, 1)), 
[debug] current_player=0 (B), 
[debug] board[(1, 1)]=10, board[(1, 1)]=10, 
[debug] board state:
[[ 5 13  8 15]
 [11 10  4  2]
 [ 0  6 15 10]
 [ 1  6 15  3]
 [ 7 12  2 12]
 [ 3 13  4 13]
 [15 13  6 15]
 [ 5  6 15 11]], 

=11 

=16 

[debug] move action_id=110, action=((2, 2), (2, 2)), 
[debug] current_player=1 (R), 
[debug] board[(2, 2)]=8, board[(2, 2)]=8, 
[debug] board state:
[[ 5 13  8 15]
 [11 10  4  2]
 [ 0  6  8 10]
 [ 1  6 15  3]
 [ 7 12  2 12]
 [ 3 13  4 13]
 [15 13  6 15]
 [ 5  6 15 11]], 

=11 

=16 

=12 d8 d8

[debug] move action_id=33, action=((0, 3), (0, 3)), 
[debug] current_player=0 (B), 
[debug] board[(0, 3)]=9, board[(0, 3)]=9, 
[debug] board state:
[[ 5 13  8  9]
 [11 10  4  2]
 [ 0  6  8 10]
 [ 1  6 15  3]
 [ 7 12  2 12]
 [ 3 13  4 13]
 [15 13  6 15]
 [ 5  6 15 11]], 

=11 

=16 

[debug] move action_id=154, action=((3, 2), (3, 2)), 
[debug] current_player=1 (R), 
[debug] board[(3, 2)]=1, board[(3, 2)]=1, 
[debug] board state:
[[ 5 13  8  9]
 [11 10  4  2]
 [ 0  6  8 10]
 [ 1  6  1  3]
 [ 7 12  2 12]
 [ 3 13  4 13]
 [15 13  6 15]
 [ 5  6 15 11]], 

=11 

=16 

=12 d2 d2

[debug] move action_id=297, action=((6, 3), (6, 3)), 
[debug] current_player=0 (B), 
[debug] board[(6, 3)]=6, board[(6, 3)]=6, 
[debug] board state:
[[ 5 13  8  9]
 [11 10  4  2]
 [ 0  6  8 10]
 [ 1  6  1  3]
 [ 7 12  2 12]
 [ 3 13  4 13]
 [15 13  6  6]
 [ 5  6 15 11]], 

=11 

=16 

[debug] move action_id=330, action=((7, 2), (7, 2)), 
[debug] current_player=1 (R), 
[debug] board[(7, 2)]=13, board[(7, 2)]=13, 
[debug] board state:
[[ 5 13  8  9]
 [11 10  4  2]
 [ 0  6  8 10]
 [ 1  6  1  3]
 [ 7 12  2 12]
 [ 3 13  4 13]
 [15 13  6  6]
 [ 5  6 13 11]], 

=11 

=16 

=12 a2 a2

[debug] move action_id=264, action=((6, 0), (6, 0)), 
[debug] current_player=0 (B), 
[debug] board[(6, 0)]=9, board[(6, 0)]=9, 
[debug] board state:
[[ 5 13  8  9]
 [11 10  4  2]
 [ 0  6  8 10]
 [ 1  6  1  3]
 [ 7 12  2 12]
 [ 3 13  4 13]
 [ 9 13  6  6]
 [ 5  6 13 11]], 

=11 

=16 

[debug] move action_id=304, action=((7, 3), (6, 3)), 
[debug] current_player=1 (R), 
[debug] board[(7, 3)]=14, board[(6, 3)]=11, 
[debug] board state:
[[ 5 13  8  9]
 [11 10  4  2]
 [ 0  6  8 10]
 [ 1  6  1  3]
 [ 7 12  2 12]
 [ 3 13  4 13]
 [ 9 13  6 11]
 [ 5  6 13 14]], 

=10 

=16 

=12 c4 b4

[debug] move action_id=207, action=((4, 2), (4, 1)), 
[debug] current_player=0 (B), 
[debug] board[(4, 2)]=14, board[(4, 1)]=2, 
[debug] board state:
[[ 5 13  8  9]
 [11 10  4  2]
 [ 0  6  8 10]
 [ 1  6  1  3]
 [ 7  2 14 12]
 [ 3 13  4 13]
 [ 9 13  6 11]
 [ 5  6 13 14]], 

=10 

=16 

[debug] move action_id=348, action=((6, 3), (7, 3)), 
[debug] current_player=1 (R), 
[debug] board[(6, 3)]=14, board[(7, 3)]=11, 
[debug] board state:
[[ 5 13  8  9]
 [11 10  4  2]
 [ 0  6  8 10]
 [ 1  6  1  3]
 [ 7  2 14 12]
 [ 3 13  4 13]
 [ 9 13  6 14]
 [ 5  6 13 11]], 

=10 

=16 

=12 c5 c4

[debug] move action_id=202, action=((3, 2), (4, 2)), 
[debug] current_player=0 (B), 
[debug] board[(3, 2)]=14, board[(4, 2)]=1, 
[debug] board state:
[[ 5 13  8  9]
 [11 10  4  2]
 [ 0  6  8 10]
 [ 1  6 14  3]
 [ 7  2  1 12]
 [ 3 13  4 13]
 [ 9 13  6 14]
 [ 5  6 13 11]], 

=10 

=16 

[debug] move action_id=304, action=((7, 3), (6, 3)), 
[debug] current_player=1 (R), 
[debug] board[(7, 3)]=14, board[(6, 3)]=11, 
[debug] board state:
[[ 5 13  8  9]
 [11 10  4  2]
 [ 0  6  8 10]
 [ 1  6 14  3]
 [ 7  2  1 12]
 [ 3 13  4 13]
 [ 9 13  6 11]
 [ 5  6 13 14]], 

=10 

=16 

=12 c4 c5

[debug] move action_id=158, action=((4, 2), (3, 2)), 
[debug] current_player=0 (B), 
[debug] board[(4, 2)]=14, board[(3, 2)]=1, 
[debug] board state:
[[ 5 13  8  9]
 [11 10  4  2]
 [ 0  6  8 10]
 [ 1  6  1  3]
 [ 7  2 14 12]
 [ 3 13  4 13]
 [ 9 13  6 11]
 [ 5  6 13 14]], 

=10 

=16 

[debug] move action_id=348, action=((6, 3), (7, 3)), 
[debug] current_player=1 (R), 
[debug] board[(6, 3)]=14, board[(7, 3)]=11, 
[debug] board state:
[[ 5 13  8  9]
 [11 10  4  2]
 [ 0  6  8 10]
 [ 1  6  1  3]
 [ 7  2 14 12]
 [ 3 13  4 13]
 [ 9 13  6 14]
 [ 5  6 13 11]], 

=10 

=16 

=12 c5 c4

[debug] move action_id=202, action=((3, 2), (4, 2)), 
[debug] current_player=0 (B), 
[debug] board[(3, 2)]=14, board[(4, 2)]=1, 
[debug] board state:
[[ 5 13  8  9]
 [11 10  4  2]
 [ 0  6  8 10]
 [ 1  6 14  3]
 [ 7  2  1 12]
 [ 3 13  4 13]
 [ 9 13  6 14]
 [ 5  6 13 11]], 

=10 

=16 

[debug] move action_id=304, action=((7, 3), (6, 3)), 
[debug] current_player=1 (R), 
[debug] board[(7, 3)]=14, board[(6, 3)]=11, 
[debug] board state:
[[ 5 13  8  9]
 [11 10  4  2]
 [ 0  6  8 10]
 [ 1  6 14  3]
 [ 7  2  1 12]
 [ 3 13  4 13]
 [ 9 13  6 11]
 [ 5  6 13 14]], 

=10 

=16 

=12 c4 c5

[debug] move action_id=158, action=((4, 2), (3, 2)), 
[debug] current_player=0 (B), 
[debug] board[(4, 2)]=14, board[(3, 2)]=1, 
[debug] board state:
[[ 5 13  8  9]
 [11 10  4  2]
 [ 0  6  8 10]
 [ 1  6  1  3]
 [ 7  2 14 12]
 [ 3 13  4 13]
 [ 9 13  6 11]
 [ 5  6 13 14]], 

=10 

=16 

[debug] move action_id=348, action=((6, 3), (7, 3)), 
[debug] current_player=1 (R), 
[debug] board[(6, 3)]=14, board[(7, 3)]=11, 
[debug] board state:
[[ 5 13  8  9]
 [11 10  4  2]
 [ 0  6  8 10]
 [ 1  6  1  3]
 [ 7  2 14 12]
 [ 3 13  4 13]
 [ 9 13  6 14]
 [ 5  6 13 11]], 

=10 

=16 

=12 c5 c4

[debug] move action_id=202, action=((3, 2), (4, 2)), 
[debug] current_player=0 (B), 
[debug] board[(3, 2)]=14, board[(4, 2)]=1, 
[debug] board state:
[[ 5 13  8  9]
 [11 10  4  2]
 [ 0  6  8 10]
 [ 1  6 14  3]
 [ 7  2  1 12]
 [ 3 13  4 13]
 [ 9 13  6 14]
 [ 5  6 13 11]], 

=10 

=16 

[debug] move action_id=304, action=((7, 3), (6, 3)), 
[debug] current_player=1 (R), 
[debug] board[(7, 3)]=14, board[(6, 3)]=11, 
[debug] board state:
[[ 5 13  8  9]
 [11 10  4  2]
 [ 0  6  8 10]
 [ 1  6 14  3]
 [ 7  2  1 12]
 [ 3 13  4 13]
 [ 9 13  6 11]
 [ 5  6 13 14]], 

=10 

=16 

=12 c4 c5

[debug] move action_id=158, action=((4, 2), (3, 2)), 
[debug] current_player=0 (B), 
[debug] board[(4, 2)]=14, board[(3, 2)]=1, 
[debug] board state:
[[ 5 13  8  9]
 [11 10  4  2]
 [ 0  6  8 10]
 [ 1  6  1  3]
 [ 7  2 14 12]
 [ 3 13  4 13]
 [ 9 13  6 11]
 [ 5  6 13 14]], 

=10 

=16 


# 10 27 29 63 65 99 101 135 137 171 173 207 209 243 245 279 281 315 317 351 353 387 389 423 425 459 461 495 497 531 533 567 569 603 605 639 641 675 677 711 713 747 749 783 785 819 821 #
/home/ntcucsk201/anaconda3/envs/darkchess/lib/python3.10/site-packages/treevalue/tree/integration/torch.py:23: FutureWarning: `torch.utils._pytree._register_pytree_node` is deprecated. Please use `torch.utils._pytree.register_pytree_node` instead.
  register_for_torch(TreeValue)
/home/ntcucsk201/anaconda3/envs/darkchess/lib/python3.10/site-packages/treevalue/tree/integration/torch.py:24: FutureWarning: `torch.utils._pytree._register_pytree_node` is deprecated. Please use `torch.utils._pytree.register_pytree_node` instead.
  register_for_torch(FastTreeValue)
Gym has been unmaintained since 2022 and does not support NumPy 2.0 amongst other critical functionality.
Please upgrade to Gymnasium, the maintained drop-in replacement of Gym, or contact the authors of your software and request that they upgrade.
See the migration guide at https://gymnasium.farama.org/introduction/migration_guide/ for additional information.
[DEBUG] Config loaded successfully
/home/ntcucsk201/DarkChess/LightZero/zoo/board_games/darkchess/muzero_mgtp.py:38: FutureWarning: You are using `torch.load` with `weights_only=False` (the current default value), which uses the default pickle module implicitly. It is possible to construct malicious pickle data which will execute arbitrary code during unpickling (See https://github.com/pytorch/pytorch/blob/main/SECURITY.md#untrusted-models for more details). In a future release, the default value for `weights_only` will be flipped to `True`. This limits the functions that could be executed during unpickling. Arbitrary objects will no longer be allowed to be loaded via this mode unless they are explicitly allowlisted by the user via `torch.serialization.add_safe_globals`. We recommend you start setting `weights_only=True` for any use case where you don't have full control of the loaded file. Please open an issue on GitHub for any issues related to this experimental feature.
  checkpoint = torch.load(model_path, map_location='cpu')
[DEBUG] Model moved to device: cuda:0

###
Account: a0_mu
Mode: MGTP
Path: /home/ntcucsk201/anaconda3/envs/darkchess/bin/python
Arg: /home/ntcucsk201/DarkChess/LightZero/zoo/board_games/darkchess/muzero_mgtp.py -model_path /home/ntcucsk201/DarkChess/LightZero/zoo/board_games/darkchess/data_muzero/darkchess_muzero_ns1000_upc50_rer0.0_bs512/ckpt/ckpt_best.pth.tar -config_path /home/ntcucsk201/DarkChess/LightZero/zoo/board_games/darkchess/data_muzero/darkchess_muzero_ns1000_upc50_rer0.0_bs512/formatted_total_config.py
Name: LightZero_DarkChess
Version: 1.0.0
###
