INITIAL
* 6:55pm Feb 18, 2026
* a1_lightzero vs a0_mu
* 1 2 2 2 2 2 5 1 2 2 2 2 2 5
* X X X X
* X X X X
* X X X X
* X X X X
* X X X X
* X X X X
* X X X X
* X X X X
* first 1
* time 900
* 1. b8(r) b1(C)
* 2. c7(p) a6(m)
* 3. d3(P) a5(R)
* 4. b2(G) a4(N)
* 5. d7(G) d8(C)
* 6. c5(c) c8(P)
* 7. d6(m) c1(p)
* 8. d1(p) b5(n)
* 9. d5(M) a7(p)
* 10. d2(N) b6(M)
* 11. c3(P) a3(g)
* 12. c2(P) a2(g)
* 13. c4(K) d4(P)
* 14. b3(c) a1(r)
* 15. c6(n) a8(k)
* 16. b4(p) b7(R)
* 17. a1-b1 d7-c7
* 18. d6-d7 b2-b3
* 19. d7-d6 c7-d7
* 20. a2-b2 b7-c7
* 21. a3-a2 a4-a3
* 22. b8-b7 a5-a4
* 23. a8-b8 a4-a5
* 24. a2-a1 a5-a4
* 25. b8-a8 b3-b4
* 26. a8-b8 a4-a5
* 27. b2-b3 b4-a4
* 28. b3-b4 a3-b3
* 29. a1-a2 b3-a3
* 30. a2-b2 a3-b3
* 31. b2-a2 b3-a3
* 32. a2-b2 a3-b3
* 33. b2-a2 b3-a3
* 34. a2-b2 a3-b3
* 35. b2-a2
* PositionRepetitionDraw,3,4 a1_lightzero Draw 0.500000,0.500000
* Comment 0 0
0. 1771412116524
1. 1771412116524
2. 1771412117662
3. 1771412118669
4. 1771412119615
5. 1771412120621
6. 1771412121568
7. 1771412122574
8. 1771412123522
9. 1771412124528
10. 1771412125475
11. 1771412126482
12. 1771412127428
13. 1771412128436
14. 1771412129381
15. 1771412130390
16. 1771412131335
17. 1771412132395
18. 1771412133340
19. 1771412134349
20. 1771412135293
21. 1771412136303
22. 1771412137295
23. 1771412138357
24. 1771412139349
25. 1771412140361
26. 1771412141403
27. 1771412142415
28. 1771412143406
29. 1771412144419
30. 1771412145460
31. 1771412146472
32. 1771412147465
33. 1771412148476
34. 1771412149471
35. 1771412150480
36. 1771412151426
37. 1771412152433
38. 1771412153382
39. 1771412154386
40. 1771412155337
41. 1771412156339
42. 1771412157291
43. 1771412158292
44. 1771412159245
45. 1771412160244
46. 1771412161199
47. 1771412162196
48. 1771412163203
49. 1771412164199
50. 1771412165157
51. 1771412166153
52. 1771412167112
53. 1771412168107
54. 1771412169066
55. 1771412170061
56. 1771412171020
57. 1771412172014
58. 1771412172974
59. 1771412174017
60. 1771412174979
61. 1771412176020
62. 1771412176984
63. 1771412178024
64. 1771412178987
65. 1771412180029
66. 1771412180991
67. 1771412182082
68. 1771412183044
69. 1771412184086

# 10 27 29 63 65 99 101 135 137 171 173 207 209 243 245 279 281 315 317 351 353 387 389 423 425 459 461 495 497 531 533 567 569 603 605 639 641 675 677 711 713 747 749 783 785 819 821 855 857 891 893 927 929 963 965 999 1001 1035 1037 1071 1073 1107 1109 1143 1145 1179 1181 1215 1217 #
LightZero MGTP Interface Ready
=1 LightZero_DarkChess

=2 1.0.0

=7 

=15 

=14 

[debug] move action_id=11, action=((0, 1), (0, 1)), 
[debug] current_player=1 (R), 
[debug] board[(0, 1)]=10, board[(0, 1)]=10, 
[debug] board state:
[[15 10 15 15]
 [15 15 15 15]
 [15 15 15 15]
 [15 15 15 15]
 [15 15 15 15]
 [15 15 15 15]
 [15 15 15 15]
 [15 15 15 15]], 

=11 

=16 

=12 b1 b1

[debug] move action_id=319, action=((7, 1), (7, 1)), 
[debug] current_player=0 (B), 
[debug] board[(7, 1)]=5, board[(7, 1)]=5, 
[debug] board state:
[[15 10 15 15]
 [15 15 15 15]
 [15 15 15 15]
 [15 15 15 15]
 [15 15 15 15]
 [15 15 15 15]
 [15 15 15 15]
 [15  5 15 15]], 

=11 

=16 

[debug] move action_id=66, action=((1, 2), (1, 2)), 
[debug] current_player=1 (R), 
[debug] board[(1, 2)]=13, board[(1, 2)]=13, 
[debug] board state:
[[15 10 15 15]
 [15 15 13 15]
 [15 15 15 15]
 [15 15 15 15]
 [15 15 15 15]
 [15 15 15 15]
 [15 15 15 15]
 [15  5 15 15]], 

=11 

=16 

=12 a6 a6

[debug] move action_id=88, action=((2, 0), (2, 0)), 
[debug] current_player=0 (B), 
[debug] board[(2, 0)]=9, board[(2, 0)]=9, 
[debug] board state:
[[15 10 15 15]
 [15 15 13 15]
 [ 9 15 15 15]
 [15 15 15 15]
 [15 15 15 15]
 [15 15 15 15]
 [15 15 15 15]
 [15  5 15 15]], 

=11 

=16 

[debug] move action_id=253, action=((5, 3), (5, 3)), 
[debug] current_player=1 (R), 
[debug] board[(5, 3)]=6, board[(5, 3)]=6, 
[debug] board state:
[[15 10 15 15]
 [15 15 13 15]
 [ 9 15 15 15]
 [15 15 15 15]
 [15 15 15 15]
 [15 15 15  6]
 [15 15 15 15]
 [15  5 15 15]], 

=11 

=16 

=12 a5 a5

[debug] move action_id=132, action=((3, 0), (3, 0)), 
[debug] current_player=0 (B), 
[debug] board[(3, 0)]=3, board[(3, 0)]=3, 
[debug] board state:
[[15 10 15 15]
 [15 15 13 15]
 [ 9 15 15 15]
 [ 3 15 15 15]
 [15 15 15 15]
 [15 15 15  6]
 [15 15 15 15]
 [15  5 15 15]], 

=11 

=16 

[debug] move action_id=275, action=((6, 1), (6, 1)), 
[debug] current_player=1 (R), 
[debug] board[(6, 1)]=1, board[(6, 1)]=1, 
[debug] board state:
[[15 10 15 15]
 [15 15 13 15]
 [ 9 15 15 15]
 [ 3 15 15 15]
 [15 15 15 15]
 [15 15 15  6]
 [15  1 15 15]
 [15  5 15 15]], 

=11 

=16 

=12 a4 a4

[debug] move action_id=176, action=((4, 0), (4, 0)), 
[debug] current_player=0 (B), 
[debug] board[(4, 0)]=4, board[(4, 0)]=4, 
[debug] board state:
[[15 10 15 15]
 [15 15 13 15]
 [ 9 15 15 15]
 [ 3 15 15 15]
 [ 4 15 15 15]
 [15 15 15  6]
 [15  1 15 15]
 [15  5 15 15]], 

=11 

=16 

[debug] move action_id=77, action=((1, 3), (1, 3)), 
[debug] current_player=1 (R), 
[debug] board[(1, 3)]=1, board[(1, 3)]=1, 
[debug] board state:
[[15 10 15 15]
 [15 15 13  1]
 [ 9 15 15 15]
 [ 3 15 15 15]
 [ 4 15 15 15]
 [15 15 15  6]
 [15  1 15 15]
 [15  5 15 15]], 

=11 

=16 

=12 d8 d8

[debug] move action_id=33, action=((0, 3), (0, 3)), 
[debug] current_player=0 (B), 
[debug] board[(0, 3)]=5, board[(0, 3)]=5, 
[debug] board state:
[[15 10 15  5]
 [15 15 13  1]
 [ 9 15 15 15]
 [ 3 15 15 15]
 [ 4 15 15 15]
 [15 15 15  6]
 [15  1 15 15]
 [15  5 15 15]], 

=11 

=16 

[debug] move action_id=154, action=((3, 2), (3, 2)), 
[debug] current_player=1 (R), 
[debug] board[(3, 2)]=12, board[(3, 2)]=12, 
[debug] board state:
[[15 10 15  5]
 [15 15 13  1]
 [ 9 15 15 15]
 [ 3 15 12 15]
 [ 4 15 15 15]
 [15 15 15  6]
 [15  1 15 15]
 [15  5 15 15]], 

=11 

=16 

=12 c8 c8

[debug] move action_id=22, action=((0, 2), (0, 2)), 
[debug] current_player=0 (B), 
[debug] board[(0, 2)]=6, board[(0, 2)]=6, 
[debug] board state:
[[15 10  6  5]
 [15 15 13  1]
 [ 9 15 15 15]
 [ 3 15 12 15]
 [ 4 15 15 15]
 [15 15 15  6]
 [15  1 15 15]
 [15  5 15 15]], 

=11 

=16 

[debug] move action_id=121, action=((2, 3), (2, 3)), 
[debug] current_player=1 (R), 
[debug] board[(2, 3)]=9, board[(2, 3)]=9, 
[debug] board state:
[[15 10  6  5]
 [15 15 13  1]
 [ 9 15 15  9]
 [ 3 15 12 15]
 [ 4 15 15 15]
 [15 15 15  6]
 [15  1 15 15]
 [15  5 15 15]], 

=11 

=16 

=12 c1 c1

[debug] move action_id=330, action=((7, 2), (7, 2)), 
[debug] current_player=0 (B), 
[debug] board[(7, 2)]=13, board[(7, 2)]=13, 
[debug] board state:
[[15 10  6  5]
 [15 15 13  1]
 [ 9 15 15  9]
 [ 3 15 12 15]
 [ 4 15 15 15]
 [15 15 15  6]
 [15  1 15 15]
 [15  5 13 15]], 

=11 

=16 

[debug] move action_id=341, action=((7, 3), (7, 3)), 
[debug] current_player=1 (R), 
[debug] board[(7, 3)]=13, board[(7, 3)]=13, 
[debug] board state:
[[15 10  6  5]
 [15 15 13  1]
 [ 9 15 15  9]
 [ 3 15 12 15]
 [ 4 15 15 15]
 [15 15 15  6]
 [15  1 15 15]
 [15  5 13 13]], 

=11 

=16 

=12 b5 b5

[debug] move action_id=143, action=((3, 1), (3, 1)), 
[debug] current_player=0 (B), 
[debug] board[(3, 1)]=11, board[(3, 1)]=11, 
[debug] board state:
[[15 10  6  5]
 [15 15 13  1]
 [ 9 15 15  9]
 [ 3 11 12 15]
 [ 4 15 15 15]
 [15 15 15  6]
 [15  1 15 15]
 [15  5 13 13]], 

=11 

=16 

[debug] move action_id=165, action=((3, 3), (3, 3)), 
[debug] current_player=1 (R), 
[debug] board[(3, 3)]=2, board[(3, 3)]=2, 
[debug] board state:
[[15 10  6  5]
 [15 15 13  1]
 [ 9 15 15  9]
 [ 3 11 12  2]
 [ 4 15 15 15]
 [15 15 15  6]
 [15  1 15 15]
 [15  5 13 13]], 

=11 

=16 

=12 a7 a7

[debug] move action_id=44, action=((1, 0), (1, 0)), 
[debug] current_player=0 (B), 
[debug] board[(1, 0)]=13, board[(1, 0)]=13, 
[debug] board state:
[[15 10  6  5]
 [13 15 13  1]
 [ 9 15 15  9]
 [ 3 11 12  2]
 [ 4 15 15 15]
 [15 15 15  6]
 [15  1 15 15]
 [15  5 13 13]], 

=11 

=16 

[debug] move action_id=297, action=((6, 3), (6, 3)), 
[debug] current_player=1 (R), 
[debug] board[(6, 3)]=4, board[(6, 3)]=4, 
[debug] board state:
[[15 10  6  5]
 [13 15 13  1]
 [ 9 15 15  9]
 [ 3 11 12  2]
 [ 4 15 15 15]
 [15 15 15  6]
 [15  1 15  4]
 [15  5 13 13]], 

=11 

=16 

=12 b6 b6

[debug] move action_id=99, action=((2, 1), (2, 1)), 
[debug] current_player=0 (B), 
[debug] board[(2, 1)]=2, board[(2, 1)]=2, 
[debug] board state:
[[15 10  6  5]
 [13 15 13  1]
 [ 9  2 15  9]
 [ 3 11 12  2]
 [ 4 15 15 15]
 [15 15 15  6]
 [15  1 15  4]
 [15  5 13 13]], 

=11 

=16 

[debug] move action_id=242, action=((5, 2), (5, 2)), 
[debug] current_player=1 (R), 
[debug] board[(5, 2)]=6, board[(5, 2)]=6, 
[debug] board state:
[[15 10  6  5]
 [13 15 13  1]
 [ 9  2 15  9]
 [ 3 11 12  2]
 [ 4 15 15 15]
 [15 15  6  6]
 [15  1 15  4]
 [15  5 13 13]], 

=11 

=16 

=12 a3 a3

[debug] move action_id=220, action=((5, 0), (5, 0)), 
[debug] current_player=0 (B), 
[debug] board[(5, 0)]=8, board[(5, 0)]=8, 
[debug] board state:
[[15 10  6  5]
 [13 15 13  1]
 [ 9  2 15  9]
 [ 3 11 12  2]
 [ 4 15 15 15]
 [ 8 15  6  6]
 [15  1 15  4]
 [15  5 13 13]], 

=11 

=16 

[debug] move action_id=286, action=((6, 2), (6, 2)), 
[debug] current_player=1 (R), 
[debug] board[(6, 2)]=6, board[(6, 2)]=6, 
[debug] board state:
[[15 10  6  5]
 [13 15 13  1]
 [ 9  2 15  9]
 [ 3 11 12  2]
 [ 4 15 15 15]
 [ 8 15  6  6]
 [15  1  6  4]
 [15  5 13 13]], 

=11 

=16 

=12 a2 a2

[debug] move action_id=264, action=((6, 0), (6, 0)), 
[debug] current_player=0 (B), 
[debug] board[(6, 0)]=8, board[(6, 0)]=8, 
[debug] board state:
[[15 10  6  5]
 [13 15 13  1]
 [ 9  2 15  9]
 [ 3 11 12  2]
 [ 4 15 15 15]
 [ 8 15  6  6]
 [ 8  1  6  4]
 [15  5 13 13]], 

=11 

=16 

[debug] move action_id=198, action=((4, 2), (4, 2)), 
[debug] current_player=1 (R), 
[debug] board[(4, 2)]=0, board[(4, 2)]=0, 
[debug] board state:
[[15 10  6  5]
 [13 15 13  1]
 [ 9  2 15  9]
 [ 3 11 12  2]
 [ 4 15  0 15]
 [ 8 15  6  6]
 [ 8  1  6  4]
 [15  5 13 13]], 

=11 

=16 

=12 d4 d4

[debug] move action_id=209, action=((4, 3), (4, 3)), 
[debug] current_player=0 (B), 
[debug] board[(4, 3)]=6, board[(4, 3)]=6, 
[debug] board state:
[[15 10  6  5]
 [13 15 13  1]
 [ 9  2 15  9]
 [ 3 11 12  2]
 [ 4 15  0  6]
 [ 8 15  6  6]
 [ 8  1  6  4]
 [15  5 13 13]], 

=11 

=16 

[debug] move action_id=231, action=((5, 1), (5, 1)), 
[debug] current_player=1 (R), 
[debug] board[(5, 1)]=12, board[(5, 1)]=12, 
[debug] board state:
[[15 10  6  5]
 [13 15 13  1]
 [ 9  2 15  9]
 [ 3 11 12  2]
 [ 4 15  0  6]
 [ 8 12  6  6]
 [ 8  1  6  4]
 [15  5 13 13]], 

=11 

=16 

=12 a1 a1

[debug] move action_id=308, action=((7, 0), (7, 0)), 
[debug] current_player=0 (B), 
[debug] board[(7, 0)]=10, board[(7, 0)]=10, 
[debug] board state:
[[15 10  6  5]
 [13 15 13  1]
 [ 9  2 15  9]
 [ 3 11 12  2]
 [ 4 15  0  6]
 [ 8 12  6  6]
 [ 8  1  6  4]
 [10  5 13 13]], 

=11 

=16 

[debug] move action_id=110, action=((2, 2), (2, 2)), 
[debug] current_player=1 (R), 
[debug] board[(2, 2)]=11, board[(2, 2)]=11, 
[debug] board state:
[[15 10  6  5]
 [13 15 13  1]
 [ 9  2 11  9]
 [ 3 11 12  2]
 [ 4 15  0  6]
 [ 8 12  6  6]
 [ 8  1  6  4]
 [10  5 13 13]], 

=11 

=16 

=12 a8 a8

[debug] move action_id=0, action=((0, 0), (0, 0)), 
[debug] current_player=0 (B), 
[debug] board[(0, 0)]=7, board[(0, 0)]=7, 
[debug] board state:
[[ 7 10  6  5]
 [13 15 13  1]
 [ 9  2 11  9]
 [ 3 11 12  2]
 [ 4 15  0  6]
 [ 8 12  6  6]
 [ 8  1  6  4]
 [10  5 13 13]], 

=11 

=16 

[debug] move action_id=187, action=((4, 1), (4, 1)), 
[debug] current_player=1 (R), 
[debug] board[(4, 1)]=13, board[(4, 1)]=13, 
[debug] board state:
[[ 7 10  6  5]
 [13 15 13  1]
 [ 9  2 11  9]
 [ 3 11 12  2]
 [ 4 13  0  6]
 [ 8 12  6  6]
 [ 8  1  6  4]
 [10  5 13 13]], 

=11 

=16 

=12 b7 b7

[debug] move action_id=55, action=((1, 1), (1, 1)), 
[debug] current_player=0 (B), 
[debug] board[(1, 1)]=3, board[(1, 1)]=3, 
[debug] board state:
[[ 7 10  6  5]
 [13  3 13  1]
 [ 9  2 11  9]
 [ 3 11 12  2]
 [ 4 13  0  6]
 [ 8 12  6  6]
 [ 8  1  6  4]
 [10  5 13 13]], 

=11 

=16 

[debug] move action_id=316, action=((7, 0), (7, 1)), 
[debug] current_player=1 (R), 
[debug] board[(7, 0)]=14, board[(7, 1)]=10, 
[debug] board state:
[[ 7 10  6  5]
 [13  3 13  1]
 [ 9  2 11  9]
 [ 3 11 12  2]
 [ 4 13  0  6]
 [ 8 12  6  6]
 [ 8  1  6  4]
 [14 10 13 13]], 

=10 

=16 

=12 d7 c7

[debug] move action_id=87, action=((1, 3), (1, 2)), 
[debug] current_player=0 (B), 
[debug] board[(1, 3)]=14, board[(1, 2)]=1, 
[debug] board state:
[[ 7 10  6  5]
 [13  3  1 14]
 [ 9  2 11  9]
 [ 3 11 12  2]
 [ 4 13  0  6]
 [ 8 12  6  6]
 [ 8  1  6  4]
 [14 10 13 13]], 

=10 

=16 

[debug] move action_id=79, action=((2, 3), (1, 3)), 
[debug] current_player=1 (R), 
[debug] board[(2, 3)]=14, board[(1, 3)]=9, 
[debug] board state:
[[ 7 10  6  5]
 [13  3  1  9]
 [ 9  2 11 14]
 [ 3 11 12  2]
 [ 4 13  0  6]
 [ 8 12  6  6]
 [ 8  1  6  4]
 [14 10 13 13]], 

=10 

=16 

=12 b2 b3

[debug] move action_id=237, action=((6, 1), (5, 1)), 
[debug] current_player=0 (B), 
[debug] board[(6, 1)]=14, board[(5, 1)]=1, 
[debug] board state:
[[ 7 10  6  5]
 [13  3  1  9]
 [ 9  2 11 14]
 [ 3 11 12  2]
 [ 4 13  0  6]
 [ 8  1  6  6]
 [ 8 14  6  4]
 [14 10 13 13]], 

=10 

=16 

[debug] move action_id=123, action=((1, 3), (2, 3)), 
[debug] current_player=1 (R), 
[debug] board[(1, 3)]=14, board[(2, 3)]=9, 
[debug] board state:
[[ 7 10  6  5]
 [13  3  1 14]
 [ 9  2 11  9]
 [ 3 11 12  2]
 [ 4 13  0  6]
 [ 8  1  6  6]
 [ 8 14  6  4]
 [14 10 13 13]], 

=10 

=16 

=12 c7 d7

[debug] move action_id=76, action=((1, 2), (1, 3)), 
[debug] current_player=0 (B), 
[debug] board[(1, 2)]=14, board[(1, 3)]=1, 
[debug] board state:
[[ 7 10  6  5]
 [13  3 14  1]
 [ 9  2 11  9]
 [ 3 11 12  2]
 [ 4 13  0  6]
 [ 8  1  6  6]
 [ 8 14  6  4]
 [14 10 13 13]], 

=10 

=16 

[debug] move action_id=272, action=((6, 0), (6, 1)), 
[debug] current_player=1 (R), 
[debug] board[(6, 0)]=14, board[(6, 1)]=8, 
[debug] board state:
[[ 7 10  6  5]
 [13  3 14  1]
 [ 9  2 11  9]
 [ 3 11 12  2]
 [ 4 13  0  6]
 [ 8  1  6  6]
 [14  8  6  4]
 [14 10 13 13]], 

=10 

=16 

=12 b7 c7

[debug] move action_id=64, action=((1, 1), (1, 2)), 
[debug] current_player=0 (B), 
[debug] board[(1, 1)]=14, board[(1, 2)]=3, 
[debug] board state:
[[ 7 10  6  5]
 [13 14  3  1]
 [ 9  2 11  9]
 [ 3 11 12  2]
 [ 4 13  0  6]
 [ 8  1  6  6]
 [14  8  6  4]
 [14 10 13 13]], 

=10 

=16 

[debug] move action_id=270, action=((5, 0), (6, 0)), 
[debug] current_player=1 (R), 
[debug] board[(5, 0)]=14, board[(6, 0)]=8, 
[debug] board state:
[[ 7 10  6  5]
 [13 14  3  1]
 [ 9  2 11  9]
 [ 3 11 12  2]
 [ 4 13  0  6]
 [14  1  6  6]
 [ 8  8  6  4]
 [14 10 13 13]], 

=10 

=16 

=12 a4 a3

[debug] move action_id=225, action=((4, 0), (5, 0)), 
[debug] current_player=0 (B), 
[debug] board[(4, 0)]=14, board[(5, 0)]=4, 
[debug] board state:
[[ 7 10  6  5]
 [13 14  3  1]
 [ 9  2 11  9]
 [ 3 11 12  2]
 [14 13  0  6]
 [ 4  1  6  6]
 [ 8  8  6  4]
 [14 10 13 13]], 

=10 

=16 

[debug] move action_id=56, action=((0, 1), (1, 1)), 
[debug] current_player=1 (R), 
[debug] board[(0, 1)]=14, board[(1, 1)]=10, 
[debug] board state:
[[ 7 14  6  5]
 [13 10  3  1]
 [ 9  2 11  9]
 [ 3 11 12  2]
 [14 13  0  6]
 [ 4  1  6  6]
 [ 8  8  6  4]
 [14 10 13 13]], 

=10 

=16 

=12 a5 a4

[debug] move action_id=180, action=((3, 0), (4, 0)), 
[debug] current_player=0 (B), 
[debug] board[(3, 0)]=14, board[(4, 0)]=3, 
[debug] board state:
[[ 7 14  6  5]
 [13 10  3  1]
 [ 9  2 11  9]
 [14 11 12  2]
 [ 3 13  0  6]
 [ 4  1  6  6]
 [ 8  8  6  4]
 [14 10 13 13]], 

=10 

=16 

[debug] move action_id=8, action=((0, 0), (0, 1)), 
[debug] current_player=1 (R), 
[debug] board[(0, 0)]=14, board[(0, 1)]=7, 
[debug] board state:
[[14  7  6  5]
 [13 10  3  1]
 [ 9  2 11  9]
 [14 11 12  2]
 [ 3 13  0  6]
 [ 4  1  6  6]
 [ 8  8  6  4]
 [14 10 13 13]], 

=10 

=16 

=12 a4 a5

[debug] move action_id=136, action=((4, 0), (3, 0)), 
[debug] current_player=0 (B), 
[debug] board[(4, 0)]=14, board[(3, 0)]=3, 
[debug] board state:
[[14  7  6  5]
 [13 10  3  1]
 [ 9  2 11  9]
 [ 3 11 12  2]
 [14 13  0  6]
 [ 4  1  6  6]
 [ 8  8  6  4]
 [14 10 13 13]], 

=10 

=16 

[debug] move action_id=315, action=((6, 0), (7, 0)), 
[debug] current_player=1 (R), 
[debug] board[(6, 0)]=14, board[(7, 0)]=8, 
[debug] board state:
[[14  7  6  5]
 [13 10  3  1]
 [ 9  2 11  9]
 [ 3 11 12  2]
 [14 13  0  6]
 [ 4  1  6  6]
 [14  8  6  4]
 [ 8 10 13 13]], 

=10 

=16 

=12 a5 a4

[debug] move action_id=180, action=((3, 0), (4, 0)), 
[debug] current_player=0 (B), 
[debug] board[(3, 0)]=14, board[(4, 0)]=3, 
[debug] board state:
[[14  7  6  5]
 [13 10  3  1]
 [ 9  2 11  9]
 [14 11 12  2]
 [ 3 13  0  6]
 [ 4  1  6  6]
 [14  8  6  4]
 [ 8 10 13 13]], 

=10 

=16 

[debug] move action_id=19, action=((0, 1), (0, 0)), 
[debug] current_player=1 (R), 
[debug] board[(0, 1)]=14, board[(0, 0)]=7, 
[debug] board state:
[[ 7 14  6  5]
 [13 10  3  1]
 [ 9  2 11  9]
 [14 11 12  2]
 [ 3 13  0  6]
 [ 4  1  6  6]
 [14  8  6  4]
 [ 8 10 13 13]], 

=10 

=16 

=12 b3 b4

[debug] move action_id=192, action=((5, 1), (4, 1)), 
[debug] current_player=0 (B), 
[debug] board[(5, 1)]=14, board[(4, 1)]=1, 
[debug] board state:
[[ 7 14  6  5]
 [13 10  3  1]
 [ 9  2 11  9]
 [14 11 12  2]
 [ 3  1  0  6]
 [ 4 14  6  6]
 [14  8  6  4]
 [ 8 10 13 13]], 

=10 

=16 

[debug] move action_id=8, action=((0, 0), (0, 1)), 
[debug] current_player=1 (R), 
[debug] board[(0, 0)]=14, board[(0, 1)]=7, 
[debug] board state:
[[14  7  6  5]
 [13 10  3  1]
 [ 9  2 11  9]
 [14 11 12  2]
 [ 3  1  0  6]
 [ 4 14  6  6]
 [14  8  6  4]
 [ 8 10 13 13]], 

=10 

=16 

=12 a4 a5

[debug] move action_id=136, action=((4, 0), (3, 0)), 
[debug] current_player=0 (B), 
[debug] board[(4, 0)]=14, board[(3, 0)]=3, 
[debug] board state:
[[14  7  6  5]
 [13 10  3  1]
 [ 9  2 11  9]
 [ 3 11 12  2]
 [14  1  0  6]
 [ 4 14  6  6]
 [14  8  6  4]
 [ 8 10 13 13]], 

=10 

=16 

[debug] move action_id=237, action=((6, 1), (5, 1)), 
[debug] current_player=1 (R), 
[debug] board[(6, 1)]=14, board[(5, 1)]=8, 
[debug] board state:
[[14  7  6  5]
 [13 10  3  1]
 [ 9  2 11  9]
 [ 3 11 12  2]
 [14  1  0  6]
 [ 4  8  6  6]
 [14 14  6  4]
 [ 8 10 13 13]], 

=10 

=16 

=12 b4 a4

[debug] move action_id=195, action=((4, 1), (4, 0)), 
[debug] current_player=0 (B), 
[debug] board[(4, 1)]=14, board[(4, 0)]=1, 
[debug] board state:
[[14  7  6  5]
 [13 10  3  1]
 [ 9  2 11  9]
 [ 3 11 12  2]
 [ 1 14  0  6]
 [ 4  8  6  6]
 [14 14  6  4]
 [ 8 10 13 13]], 

=10 

=16 

[debug] move action_id=192, action=((5, 1), (4, 1)), 
[debug] current_player=1 (R), 
[debug] board[(5, 1)]=14, board[(4, 1)]=8, 
[debug] board state:
[[14  7  6  5]
 [13 10  3  1]
 [ 9  2 11  9]
 [ 3 11 12  2]
 [ 1  8  0  6]
 [ 4 14  6  6]
 [14 14  6  4]
 [ 8 10 13 13]], 

=10 

=16 

=12 a3 b3

[debug] move action_id=228, action=((5, 0), (5, 1)), 
[debug] current_player=0 (B), 
[debug] board[(5, 0)]=14, board[(5, 1)]=4, 
[debug] board state:
[[14  7  6  5]
 [13 10  3  1]
 [ 9  2 11  9]
 [ 3 11 12  2]
 [ 1  8  0  6]
 [14  4  6  6]
 [14 14  6  4]
 [ 8 10 13 13]], 

=10 

=16 

[debug] move action_id=271, action=((7, 0), (6, 0)), 
[debug] current_player=1 (R), 
[debug] board[(7, 0)]=14, board[(6, 0)]=8, 
[debug] board state:
[[14  7  6  5]
 [13 10  3  1]
 [ 9  2 11  9]
 [ 3 11 12  2]
 [ 1  8  0  6]
 [14  4  6  6]
 [ 8 14  6  4]
 [14 10 13 13]], 

=10 

=16 

=12 b3 a3

[debug] move action_id=239, action=((5, 1), (5, 0)), 
[debug] current_player=0 (B), 
[debug] board[(5, 1)]=14, board[(5, 0)]=4, 
[debug] board state:
[[14  7  6  5]
 [13 10  3  1]
 [ 9  2 11  9]
 [ 3 11 12  2]
 [ 1  8  0  6]
 [ 4 14  6  6]
 [ 8 14  6  4]
 [14 10 13 13]], 

=10 

=16 

[debug] move action_id=272, action=((6, 0), (6, 1)), 
[debug] current_player=1 (R), 
[debug] board[(6, 0)]=14, board[(6, 1)]=8, 
[debug] board state:
[[14  7  6  5]
 [13 10  3  1]
 [ 9  2 11  9]
 [ 3 11 12  2]
 [ 1  8  0  6]
 [ 4 14  6  6]
 [14  8  6  4]
 [14 10 13 13]], 

=10 

=16 

=12 a3 b3

[debug] move action_id=228, action=((5, 0), (5, 1)), 
[debug] current_player=0 (B), 
[debug] board[(5, 0)]=14, board[(5, 1)]=4, 
[debug] board state:
[[14  7  6  5]
 [13 10  3  1]
 [ 9  2 11  9]
 [ 3 11 12  2]
 [ 1  8  0  6]
 [14  4  6  6]
 [14  8  6  4]
 [14 10 13 13]], 

=10 

=16 

