INITIAL
* 7:48pm Feb 18, 2026
* a1_lightzero vs a0_mu
* 1 2 2 2 2 2 5 1 2 2 2 2 2 5
* X X X X
* X X X X
* X X X X
* X X X X
* X X X X
* X X X X
* X X X X
* X X X X
* first 1
* time 900
* 1. b8(c) b1(P)
* 2. c7(m) b5(M)
* 3. d3(p) a7(N)
* 4. d7(g) a6(K)
* 5. d1(r) a4(k)
* 6. d6(p) c8(G)
* 7. d4(G) b6(p)
* 8. b3(C) c5(P)
* 9. a3(P) c2(n)
* 10. d2(c) c3(R)
* 11. d8(C) b2(p)
* 12. a5(N) a8(r)
* 13. a1(m) c6(P)
* 14. c4(P) b7(g)
* 15. d5(R) a2(p)
* 16. b4(n) b5-b4
* 17. a4-b4 a5-a4
* 18. b4-b5 a6-a5
* 19. b5-b4 a5-b5
* 20. b6-a6 c6-b6
* 21. a6-a5 a7-a6
* 22. b7-a7 c8-b8
* 23. c7-b7 c1(M)
* 24. d7-c7 c1-d1
* 25. c7-d7 d1-c1
* 26. d7-c7 c1-d1
* 27. c7-d7 d1-c1
* 28. d7-c7 c1-d1
* 29. c7-d7 d1-c1
* 30. d7-c7 c1-d1
* PositionRepetitionDraw,3,4 a1_lightzero Draw 0.500000,0.500000
* Comment 0 0
0. 1771415289310
1. 1771415289310
2. 1771415290446
3. 1771415291453
4. 1771415292402
5. 1771415293356
6. 1771415294307
7. 1771415295260
8. 1771415296211
9. 1771415297213
10. 1771415298166
11. 1771415299165
12. 1771415300121
13. 1771415301067
14. 1771415302026
15. 1771415303022
16. 1771415303982
17. 1771415304976
18. 1771415305937
19. 1771415306980
20. 1771415307942
21. 1771415308983
22. 1771415309998
23. 1771415311036
24. 1771415312053
25. 1771415313089
26. 1771415314058
27. 1771415315091
28. 1771415316064
29. 1771415317044
30. 1771415318019
31. 1771415318998
32. 1771415319974
33. 1771415321000
34. 1771415321979
35. 1771415323003
36. 1771415323985
37. 1771415324956
38. 1771415325940
39. 1771415326959
40. 1771415327945
41. 1771415328962
42. 1771415329951
43. 1771415330915
44. 1771415331906
45. 1771415332920
46. 1771415333911
47. 1771415334873
48. 1771415335866
49. 1771415336878
50. 1771415337871
51. 1771415338831
52. 1771415339776
53. 1771415340734
54. 1771415341682
55. 1771415342637
56. 1771415343636
57. 1771415344640
58. 1771415345589
59. 1771415346592
60. 1771415347543

# 10 27 29 63 65 99 101 135 137 171 173 207 209 243 245 279 281 315 317 351 353 387 389 423 425 459 461 495 497 531 533 567 569 603 605 639 641 675 677 711 713 747 749 783 785 819 821 855 857 891 893 927 929 963 965 999 1001 1035 1037 1071 1073 #
LightZero MGTP Interface Ready
=1 LightZero_DarkChess

=2 1.0.0

=7 

=15 

=14 

[debug] move action_id=11, action=((0, 1), (0, 1)), 
[debug] current_player=1 (R), 
[debug] board[(0, 1)]=12, board[(0, 1)]=12, 
[debug] board state:
[[15 12 15 15]
 [15 15 15 15]
 [15 15 15 15]
 [15 15 15 15]
 [15 15 15 15]
 [15 15 15 15]
 [15 15 15 15]
 [15 15 15 15]], 

=11 

=16 

=12 b1 b1

[debug] move action_id=319, action=((7, 1), (7, 1)), 
[debug] current_player=0 (B), 
[debug] board[(7, 1)]=6, board[(7, 1)]=6, 
[debug] board state:
[[15 12 15 15]
 [15 15 15 15]
 [15 15 15 15]
 [15 15 15 15]
 [15 15 15 15]
 [15 15 15 15]
 [15 15 15 15]
 [15  6 15 15]], 

=11 

=16 

[debug] move action_id=66, action=((1, 2), (1, 2)), 
[debug] current_player=1 (R), 
[debug] board[(1, 2)]=9, board[(1, 2)]=9, 
[debug] board state:
[[15 12 15 15]
 [15 15  9 15]
 [15 15 15 15]
 [15 15 15 15]
 [15 15 15 15]
 [15 15 15 15]
 [15 15 15 15]
 [15  6 15 15]], 

=11 

=16 

=12 b5 b5

[debug] move action_id=143, action=((3, 1), (3, 1)), 
[debug] current_player=0 (B), 
[debug] board[(3, 1)]=2, board[(3, 1)]=2, 
[debug] board state:
[[15 12 15 15]
 [15 15  9 15]
 [15 15 15 15]
 [15  2 15 15]
 [15 15 15 15]
 [15 15 15 15]
 [15 15 15 15]
 [15  6 15 15]], 

=11 

=16 

[debug] move action_id=253, action=((5, 3), (5, 3)), 
[debug] current_player=1 (R), 
[debug] board[(5, 3)]=13, board[(5, 3)]=13, 
[debug] board state:
[[15 12 15 15]
 [15 15  9 15]
 [15 15 15 15]
 [15  2 15 15]
 [15 15 15 15]
 [15 15 15 13]
 [15 15 15 15]
 [15  6 15 15]], 

=11 

=16 

=12 a7 a7

[debug] move action_id=44, action=((1, 0), (1, 0)), 
[debug] current_player=0 (B), 
[debug] board[(1, 0)]=4, board[(1, 0)]=4, 
[debug] board state:
[[15 12 15 15]
 [ 4 15  9 15]
 [15 15 15 15]
 [15  2 15 15]
 [15 15 15 15]
 [15 15 15 13]
 [15 15 15 15]
 [15  6 15 15]], 

=11 

=16 

[debug] move action_id=77, action=((1, 3), (1, 3)), 
[debug] current_player=1 (R), 
[debug] board[(1, 3)]=8, board[(1, 3)]=8, 
[debug] board state:
[[15 12 15 15]
 [ 4 15  9  8]
 [15 15 15 15]
 [15  2 15 15]
 [15 15 15 15]
 [15 15 15 13]
 [15 15 15 15]
 [15  6 15 15]], 

=11 

=16 

=12 a6 a6

[debug] move action_id=88, action=((2, 0), (2, 0)), 
[debug] current_player=0 (B), 
[debug] board[(2, 0)]=0, board[(2, 0)]=0, 
[debug] board state:
[[15 12 15 15]
 [ 4 15  9  8]
 [ 0 15 15 15]
 [15  2 15 15]
 [15 15 15 15]
 [15 15 15 13]
 [15 15 15 15]
 [15  6 15 15]], 

=11 

=16 

[debug] move action_id=341, action=((7, 3), (7, 3)), 
[debug] current_player=1 (R), 
[debug] board[(7, 3)]=10, board[(7, 3)]=10, 
[debug] board state:
[[15 12 15 15]
 [ 4 15  9  8]
 [ 0 15 15 15]
 [15  2 15 15]
 [15 15 15 15]
 [15 15 15 13]
 [15 15 15 15]
 [15  6 15 10]], 

=11 

=16 

=12 a4 a4

[debug] move action_id=176, action=((4, 0), (4, 0)), 
[debug] current_player=0 (B), 
[debug] board[(4, 0)]=7, board[(4, 0)]=7, 
[debug] board state:
[[15 12 15 15]
 [ 4 15  9  8]
 [ 0 15 15 15]
 [15  2 15 15]
 [ 7 15 15 15]
 [15 15 15 13]
 [15 15 15 15]
 [15  6 15 10]], 

=11 

=16 

[debug] move action_id=121, action=((2, 3), (2, 3)), 
[debug] current_player=1 (R), 
[debug] board[(2, 3)]=13, board[(2, 3)]=13, 
[debug] board state:
[[15 12 15 15]
 [ 4 15  9  8]
 [ 0 15 15 13]
 [15  2 15 15]
 [ 7 15 15 15]
 [15 15 15 13]
 [15 15 15 15]
 [15  6 15 10]], 

=11 

=16 

=12 c8 c8

[debug] move action_id=22, action=((0, 2), (0, 2)), 
[debug] current_player=0 (B), 
[debug] board[(0, 2)]=1, board[(0, 2)]=1, 
[debug] board state:
[[15 12  1 15]
 [ 4 15  9  8]
 [ 0 15 15 13]
 [15  2 15 15]
 [ 7 15 15 15]
 [15 15 15 13]
 [15 15 15 15]
 [15  6 15 10]], 

=11 

=16 

[debug] move action_id=209, action=((4, 3), (4, 3)), 
[debug] current_player=1 (R), 
[debug] board[(4, 3)]=1, board[(4, 3)]=1, 
[debug] board state:
[[15 12  1 15]
 [ 4 15  9  8]
 [ 0 15 15 13]
 [15  2 15 15]
 [ 7 15 15  1]
 [15 15 15 13]
 [15 15 15 15]
 [15  6 15 10]], 

=11 

=16 

=12 b6 b6

[debug] move action_id=99, action=((2, 1), (2, 1)), 
[debug] current_player=0 (B), 
[debug] board[(2, 1)]=13, board[(2, 1)]=13, 
[debug] board state:
[[15 12  1 15]
 [ 4 15  9  8]
 [ 0 13 15 13]
 [15  2 15 15]
 [ 7 15 15  1]
 [15 15 15 13]
 [15 15 15 15]
 [15  6 15 10]], 

=11 

=16 

[debug] move action_id=231, action=((5, 1), (5, 1)), 
[debug] current_player=1 (R), 
[debug] board[(5, 1)]=5, board[(5, 1)]=5, 
[debug] board state:
[[15 12  1 15]
 [ 4 15  9  8]
 [ 0 13 15 13]
 [15  2 15 15]
 [ 7 15 15  1]
 [15  5 15 13]
 [15 15 15 15]
 [15  6 15 10]], 

=11 

=16 

=12 c5 c5

[debug] move action_id=154, action=((3, 2), (3, 2)), 
[debug] current_player=0 (B), 
[debug] board[(3, 2)]=6, board[(3, 2)]=6, 
[debug] board state:
[[15 12  1 15]
 [ 4 15  9  8]
 [ 0 13 15 13]
 [15  2  6 15]
 [ 7 15 15  1]
 [15  5 15 13]
 [15 15 15 15]
 [15  6 15 10]], 

=11 

=16 

[debug] move action_id=220, action=((5, 0), (5, 0)), 
[debug] current_player=1 (R), 
[debug] board[(5, 0)]=6, board[(5, 0)]=6, 
[debug] board state:
[[15 12  1 15]
 [ 4 15  9  8]
 [ 0 13 15 13]
 [15  2  6 15]
 [ 7 15 15  1]
 [ 6  5 15 13]
 [15 15 15 15]
 [15  6 15 10]], 

=11 

=16 

=12 c2 c2

[debug] move action_id=286, action=((6, 2), (6, 2)), 
[debug] current_player=0 (B), 
[debug] board[(6, 2)]=11, board[(6, 2)]=11, 
[debug] board state:
[[15 12  1 15]
 [ 4 15  9  8]
 [ 0 13 15 13]
 [15  2  6 15]
 [ 7 15 15  1]
 [ 6  5 15 13]
 [15 15 11 15]
 [15  6 15 10]], 

=11 

=16 

[debug] move action_id=297, action=((6, 3), (6, 3)), 
[debug] current_player=1 (R), 
[debug] board[(6, 3)]=12, board[(6, 3)]=12, 
[debug] board state:
[[15 12  1 15]
 [ 4 15  9  8]
 [ 0 13 15 13]
 [15  2  6 15]
 [ 7 15 15  1]
 [ 6  5 15 13]
 [15 15 11 12]
 [15  6 15 10]], 

=11 

=16 

=12 c3 c3

[debug] move action_id=242, action=((5, 2), (5, 2)), 
[debug] current_player=0 (B), 
[debug] board[(5, 2)]=3, board[(5, 2)]=3, 
[debug] board state:
[[15 12  1 15]
 [ 4 15  9  8]
 [ 0 13 15 13]
 [15  2  6 15]
 [ 7 15 15  1]
 [ 6  5  3 13]
 [15 15 11 12]
 [15  6 15 10]], 

=11 

=16 

[debug] move action_id=33, action=((0, 3), (0, 3)), 
[debug] current_player=1 (R), 
[debug] board[(0, 3)]=5, board[(0, 3)]=5, 
[debug] board state:
[[15 12  1  5]
 [ 4 15  9  8]
 [ 0 13 15 13]
 [15  2  6 15]
 [ 7 15 15  1]
 [ 6  5  3 13]
 [15 15 11 12]
 [15  6 15 10]], 

=11 

=16 

=12 b2 b2

[debug] move action_id=275, action=((6, 1), (6, 1)), 
[debug] current_player=0 (B), 
[debug] board[(6, 1)]=13, board[(6, 1)]=13, 
[debug] board state:
[[15 12  1  5]
 [ 4 15  9  8]
 [ 0 13 15 13]
 [15  2  6 15]
 [ 7 15 15  1]
 [ 6  5  3 13]
 [15 13 11 12]
 [15  6 15 10]], 

=11 

=16 

[debug] move action_id=132, action=((3, 0), (3, 0)), 
[debug] current_player=1 (R), 
[debug] board[(3, 0)]=4, board[(3, 0)]=4, 
[debug] board state:
[[15 12  1  5]
 [ 4 15  9  8]
 [ 0 13 15 13]
 [ 4  2  6 15]
 [ 7 15 15  1]
 [ 6  5  3 13]
 [15 13 11 12]
 [15  6 15 10]], 

=11 

=16 

=12 a8 a8

[debug] move action_id=0, action=((0, 0), (0, 0)), 
[debug] current_player=0 (B), 
[debug] board[(0, 0)]=10, board[(0, 0)]=10, 
[debug] board state:
[[10 12  1  5]
 [ 4 15  9  8]
 [ 0 13 15 13]
 [ 4  2  6 15]
 [ 7 15 15  1]
 [ 6  5  3 13]
 [15 13 11 12]
 [15  6 15 10]], 

=11 

=16 

[debug] move action_id=308, action=((7, 0), (7, 0)), 
[debug] current_player=1 (R), 
[debug] board[(7, 0)]=9, board[(7, 0)]=9, 
[debug] board state:
[[10 12  1  5]
 [ 4 15  9  8]
 [ 0 13 15 13]
 [ 4  2  6 15]
 [ 7 15 15  1]
 [ 6  5  3 13]
 [15 13 11 12]
 [ 9  6 15 10]], 

=11 

=16 

=12 c6 c6

[debug] move action_id=110, action=((2, 2), (2, 2)), 
[debug] current_player=0 (B), 
[debug] board[(2, 2)]=6, board[(2, 2)]=6, 
[debug] board state:
[[10 12  1  5]
 [ 4 15  9  8]
 [ 0 13  6 13]
 [ 4  2  6 15]
 [ 7 15 15  1]
 [ 6  5  3 13]
 [15 13 11 12]
 [ 9  6 15 10]], 

=11 

=16 

[debug] move action_id=198, action=((4, 2), (4, 2)), 
[debug] current_player=1 (R), 
[debug] board[(4, 2)]=6, board[(4, 2)]=6, 
[debug] board state:
[[10 12  1  5]
 [ 4 15  9  8]
 [ 0 13  6 13]
 [ 4  2  6 15]
 [ 7 15  6  1]
 [ 6  5  3 13]
 [15 13 11 12]
 [ 9  6 15 10]], 

=11 

=16 

=12 b7 b7

[debug] move action_id=55, action=((1, 1), (1, 1)), 
[debug] current_player=0 (B), 
[debug] board[(1, 1)]=8, board[(1, 1)]=8, 
[debug] board state:
[[10 12  1  5]
 [ 4  8  9  8]
 [ 0 13  6 13]
 [ 4  2  6 15]
 [ 7 15  6  1]
 [ 6  5  3 13]
 [15 13 11 12]
 [ 9  6 15 10]], 

=11 

=16 

[debug] move action_id=165, action=((3, 3), (3, 3)), 
[debug] current_player=1 (R), 
[debug] board[(3, 3)]=3, board[(3, 3)]=3, 
[debug] board state:
[[10 12  1  5]
 [ 4  8  9  8]
 [ 0 13  6 13]
 [ 4  2  6  3]
 [ 7 15  6  1]
 [ 6  5  3 13]
 [15 13 11 12]
 [ 9  6 15 10]], 

=11 

=16 

=12 a2 a2

[debug] move action_id=264, action=((6, 0), (6, 0)), 
[debug] current_player=0 (B), 
[debug] board[(6, 0)]=13, board[(6, 0)]=13, 
[debug] board state:
[[10 12  1  5]
 [ 4  8  9  8]
 [ 0 13  6 13]
 [ 4  2  6  3]
 [ 7 15  6  1]
 [ 6  5  3 13]
 [13 13 11 12]
 [ 9  6 15 10]], 

=11 

=16 

[debug] move action_id=187, action=((4, 1), (4, 1)), 
[debug] current_player=1 (R), 
[debug] board[(4, 1)]=11, board[(4, 1)]=11, 
[debug] board state:
[[10 12  1  5]
 [ 4  8  9  8]
 [ 0 13  6 13]
 [ 4  2  6  3]
 [ 7 11  6  1]
 [ 6  5  3 13]
 [13 13 11 12]
 [ 9  6 15 10]], 

=11 

=16 

=12 b5 b4

[debug] move action_id=191, action=((3, 1), (4, 1)), 
[debug] current_player=0 (B), 
[debug] board[(3, 1)]=14, board[(4, 1)]=2, 
[debug] board state:
[[10 12  1  5]
 [ 4  8  9  8]
 [ 0 13  6 13]
 [ 4 14  6  3]
 [ 7  2  6  1]
 [ 6  5  3 13]
 [13 13 11 12]
 [ 9  6 15 10]], 

=10 

=16 

[debug] move action_id=184, action=((4, 0), (4, 1)), 
[debug] current_player=1 (R), 
[debug] board[(4, 0)]=14, board[(4, 1)]=7, 
[debug] board state:
[[10 12  1  5]
 [ 4  8  9  8]
 [ 0 13  6 13]
 [ 4 14  6  3]
 [14  7  6  1]
 [ 6  5  3 13]
 [13 13 11 12]
 [ 9  6 15 10]], 

=10 

=16 

=12 a5 a4

[debug] move action_id=180, action=((3, 0), (4, 0)), 
[debug] current_player=0 (B), 
[debug] board[(3, 0)]=14, board[(4, 0)]=4, 
[debug] board state:
[[10 12  1  5]
 [ 4  8  9  8]
 [ 0 13  6 13]
 [14 14  6  3]
 [ 4  7  6  1]
 [ 6  5  3 13]
 [13 13 11 12]
 [ 9  6 15 10]], 

=10 

=16 

[debug] move action_id=147, action=((4, 1), (3, 1)), 
[debug] current_player=1 (R), 
[debug] board[(4, 1)]=14, board[(3, 1)]=7, 
[debug] board state:
[[10 12  1  5]
 [ 4  8  9  8]
 [ 0 13  6 13]
 [14  7  6  3]
 [ 4 14  6  1]
 [ 6  5  3 13]
 [13 13 11 12]
 [ 9  6 15 10]], 

=10 

=16 

=12 a6 a5

[debug] move action_id=135, action=((2, 0), (3, 0)), 
[debug] current_player=0 (B), 
[debug] board[(2, 0)]=14, board[(3, 0)]=0, 
[debug] board state:
[[10 12  1  5]
 [ 4  8  9  8]
 [14 13  6 13]
 [ 0  7  6  3]
 [ 4 14  6  1]
 [ 6  5  3 13]
 [13 13 11 12]
 [ 9  6 15 10]], 

=10 

=16 

[debug] move action_id=191, action=((3, 1), (4, 1)), 
[debug] current_player=1 (R), 
[debug] board[(3, 1)]=14, board[(4, 1)]=7, 
[debug] board state:
[[10 12  1  5]
 [ 4  8  9  8]
 [14 13  6 13]
 [ 0 14  6  3]
 [ 4  7  6  1]
 [ 6  5  3 13]
 [13 13 11 12]
 [ 9  6 15 10]], 

=10 

=16 

=12 a5 b5

[debug] move action_id=140, action=((3, 0), (3, 1)), 
[debug] current_player=0 (B), 
[debug] board[(3, 0)]=14, board[(3, 1)]=0, 
[debug] board state:
[[10 12  1  5]
 [ 4  8  9  8]
 [14 13  6 13]
 [14  0  6  3]
 [ 4  7  6  1]
 [ 6  5  3 13]
 [13 13 11 12]
 [ 9  6 15 10]], 

=10 

=16 

[debug] move action_id=107, action=((2, 1), (2, 0)), 
[debug] current_player=1 (R), 
[debug] board[(2, 1)]=14, board[(2, 0)]=13, 
[debug] board state:
[[10 12  1  5]
 [ 4  8  9  8]
 [13 14  6 13]
 [14  0  6  3]
 [ 4  7  6  1]
 [ 6  5  3 13]
 [13 13 11 12]
 [ 9  6 15 10]], 

=10 

=16 

=12 c6 b6

[debug] move action_id=119, action=((2, 2), (2, 1)), 
[debug] current_player=0 (B), 
[debug] board[(2, 2)]=14, board[(2, 1)]=6, 
[debug] board state:
[[10 12  1  5]
 [ 4  8  9  8]
 [13  6 14 13]
 [14  0  6  3]
 [ 4  7  6  1]
 [ 6  5  3 13]
 [13 13 11 12]
 [ 9  6 15 10]], 

=10 

=16 

[debug] move action_id=135, action=((2, 0), (3, 0)), 
[debug] current_player=1 (R), 
[debug] board[(2, 0)]=14, board[(3, 0)]=13, 
[debug] board state:
[[10 12  1  5]
 [ 4  8  9  8]
 [14  6 14 13]
 [13  0  6  3]
 [ 4  7  6  1]
 [ 6  5  3 13]
 [13 13 11 12]
 [ 9  6 15 10]], 

=10 

=16 

=12 a7 a6

[debug] move action_id=90, action=((1, 0), (2, 0)), 
[debug] current_player=0 (B), 
[debug] board[(1, 0)]=14, board[(2, 0)]=4, 
[debug] board state:
[[10 12  1  5]
 [14  8  9  8]
 [ 4  6 14 13]
 [13  0  6  3]
 [ 4  7  6  1]
 [ 6  5  3 13]
 [13 13 11 12]
 [ 9  6 15 10]], 

=10 

=16 

[debug] move action_id=63, action=((1, 1), (1, 0)), 
[debug] current_player=1 (R), 
[debug] board[(1, 1)]=14, board[(1, 0)]=8, 
[debug] board state:
[[10 12  1  5]
 [ 8 14  9  8]
 [ 4  6 14 13]
 [13  0  6  3]
 [ 4  7  6  1]
 [ 6  5  3 13]
 [13 13 11 12]
 [ 9  6 15 10]], 

=10 

=16 

=12 c8 b8

[debug] move action_id=31, action=((0, 2), (0, 1)), 
[debug] current_player=0 (B), 
[debug] board[(0, 2)]=14, board[(0, 1)]=1, 
[debug] board state:
[[10  1 14  5]
 [ 8 14  9  8]
 [ 4  6 14 13]
 [13  0  6  3]
 [ 4  7  6  1]
 [ 6  5  3 13]
 [13 13 11 12]
 [ 9  6 15 10]], 

=10 

=16 

[debug] move action_id=75, action=((1, 2), (1, 1)), 
[debug] current_player=1 (R), 
[debug] board[(1, 2)]=14, board[(1, 1)]=9, 
[debug] board state:
[[10  1 14  5]
 [ 8  9 14  8]
 [ 4  6 14 13]
 [13  0  6  3]
 [ 4  7  6  1]
 [ 6  5  3 13]
 [13 13 11 12]
 [ 9  6 15 10]], 

=10 

=16 

=12 c1 c1

[debug] move action_id=330, action=((7, 2), (7, 2)), 
[debug] current_player=0 (B), 
[debug] board[(7, 2)]=2, board[(7, 2)]=2, 
[debug] board state:
[[10  1 14  5]
 [ 8  9 14  8]
 [ 4  6 14 13]
 [13  0  6  3]
 [ 4  7  6  1]
 [ 6  5  3 13]
 [13 13 11 12]
 [ 9  6  2 10]], 

=11 

=16 

[debug] move action_id=87, action=((1, 3), (1, 2)), 
[debug] current_player=1 (R), 
[debug] board[(1, 3)]=14, board[(1, 2)]=8, 
[debug] board state:
[[10  1 14  5]
 [ 8  9  8 14]
 [ 4  6 14 13]
 [13  0  6  3]
 [ 4  7  6  1]
 [ 6  5  3 13]
 [13 13 11 12]
 [ 9  6  2 10]], 

=10 

=16 

=12 c1 d1

[debug] move action_id=340, action=((7, 2), (7, 3)), 
[debug] current_player=0 (B), 
[debug] board[(7, 2)]=14, board[(7, 3)]=2, 
[debug] board state:
[[10  1 14  5]
 [ 8  9  8 14]
 [ 4  6 14 13]
 [13  0  6  3]
 [ 4  7  6  1]
 [ 6  5  3 13]
 [13 13 11 12]
 [ 9  6 14  2]], 

=10 

=16 

[debug] move action_id=76, action=((1, 2), (1, 3)), 
[debug] current_player=1 (R), 
[debug] board[(1, 2)]=14, board[(1, 3)]=8, 
[debug] board state:
[[10  1 14  5]
 [ 8  9 14  8]
 [ 4  6 14 13]
 [13  0  6  3]
 [ 4  7  6  1]
 [ 6  5  3 13]
 [13 13 11 12]
 [ 9  6 14  2]], 

=10 

=16 

=12 d1 c1

[debug] move action_id=351, action=((7, 3), (7, 2)), 
[debug] current_player=0 (B), 
[debug] board[(7, 3)]=14, board[(7, 2)]=2, 
[debug] board state:
[[10  1 14  5]
 [ 8  9 14  8]
 [ 4  6 14 13]
 [13  0  6  3]
 [ 4  7  6  1]
 [ 6  5  3 13]
 [13 13 11 12]
 [ 9  6  2 14]], 

=10 

=16 

[debug] move action_id=87, action=((1, 3), (1, 2)), 
[debug] current_player=1 (R), 
[debug] board[(1, 3)]=14, board[(1, 2)]=8, 
[debug] board state:
[[10  1 14  5]
 [ 8  9  8 14]
 [ 4  6 14 13]
 [13  0  6  3]
 [ 4  7  6  1]
 [ 6  5  3 13]
 [13 13 11 12]
 [ 9  6  2 14]], 

=10 

=16 

=12 c1 d1

[debug] move action_id=340, action=((7, 2), (7, 3)), 
[debug] current_player=0 (B), 
[debug] board[(7, 2)]=14, board[(7, 3)]=2, 
[debug] board state:
[[10  1 14  5]
 [ 8  9  8 14]
 [ 4  6 14 13]
 [13  0  6  3]
 [ 4  7  6  1]
 [ 6  5  3 13]
 [13 13 11 12]
 [ 9  6 14  2]], 

=10 

=16 

[debug] move action_id=76, action=((1, 2), (1, 3)), 
[debug] current_player=1 (R), 
[debug] board[(1, 2)]=14, board[(1, 3)]=8, 
[debug] board state:
[[10  1 14  5]
 [ 8  9 14  8]
 [ 4  6 14 13]
 [13  0  6  3]
 [ 4  7  6  1]
 [ 6  5  3 13]
 [13 13 11 12]
 [ 9  6 14  2]], 

=10 

=16 

=12 d1 c1

[debug] move action_id=351, action=((7, 3), (7, 2)), 
[debug] current_player=0 (B), 
[debug] board[(7, 3)]=14, board[(7, 2)]=2, 
[debug] board state:
[[10  1 14  5]
 [ 8  9 14  8]
 [ 4  6 14 13]
 [13  0  6  3]
 [ 4  7  6  1]
 [ 6  5  3 13]
 [13 13 11 12]
 [ 9  6  2 14]], 

=10 

=16 

[debug] move action_id=87, action=((1, 3), (1, 2)), 
[debug] current_player=1 (R), 
[debug] board[(1, 3)]=14, board[(1, 2)]=8, 
[debug] board state:
[[10  1 14  5]
 [ 8  9  8 14]
 [ 4  6 14 13]
 [13  0  6  3]
 [ 4  7  6  1]
 [ 6  5  3 13]
 [13 13 11 12]
 [ 9  6  2 14]], 

=10 

=16 

=12 c1 d1

[debug] move action_id=340, action=((7, 2), (7, 3)), 
[debug] current_player=0 (B), 
[debug] board[(7, 2)]=14, board[(7, 3)]=2, 
[debug] board state:
[[10  1 14  5]
 [ 8  9  8 14]
 [ 4  6 14 13]
 [13  0  6  3]
 [ 4  7  6  1]
 [ 6  5  3 13]
 [13 13 11 12]
 [ 9  6 14  2]], 

=10 

=16 

[debug] move action_id=76, action=((1, 2), (1, 3)), 
[debug] current_player=1 (R), 
[debug] board[(1, 2)]=14, board[(1, 3)]=8, 
[debug] board state:
[[10  1 14  5]
 [ 8  9 14  8]
 [ 4  6 14 13]
 [13  0  6  3]
 [ 4  7  6  1]
 [ 6  5  3 13]
 [13 13 11 12]
 [ 9  6 14  2]], 

=10 

=16 

=12 d1 c1

[debug] move action_id=351, action=((7, 3), (7, 2)), 
[debug] current_player=0 (B), 
[debug] board[(7, 3)]=14, board[(7, 2)]=2, 
[debug] board state:
[[10  1 14  5]
 [ 8  9 14  8]
 [ 4  6 14 13]
 [13  0  6  3]
 [ 4  7  6  1]
 [ 6  5  3 13]
 [13 13 11 12]
 [ 9  6  2 14]], 

=10 

=16 

[debug] move action_id=87, action=((1, 3), (1, 2)), 
[debug] current_player=1 (R), 
[debug] board[(1, 3)]=14, board[(1, 2)]=8, 
[debug] board state:
[[10  1 14  5]
 [ 8  9  8 14]
 [ 4  6 14 13]
 [13  0  6  3]
 [ 4  7  6  1]
 [ 6  5  3 13]
 [13 13 11 12]
 [ 9  6  2 14]], 

=10 

=16 

=12 c1 d1

[debug] move action_id=340, action=((7, 2), (7, 3)), 
[debug] current_player=0 (B), 
[debug] board[(7, 2)]=14, board[(7, 3)]=2, 
[debug] board state:
[[10  1 14  5]
 [ 8  9  8 14]
 [ 4  6 14 13]
 [13  0  6  3]
 [ 4  7  6  1]
 [ 6  5  3 13]
 [13 13 11 12]
 [ 9  6 14  2]], 

=10 

=16 


# 10 27 29 63 65 99 101 135 137 171 173 207 209 243 245 279 281 315 317 351 353 387 389 423 425 459 461 495 497 531 533 567 569 603 605 639 641 675 677 711 713 747 749 783 785 819 821 855 857 891 893 927 929 963 965 999 1001 1035 1037 1071 1073 #
