INITIAL
* 8:14pm Feb 18, 2026
* a0_mu vs a1_lightzero
* 1 2 2 2 2 2 5 1 2 2 2 2 2 5
* X X X X
* X X X X
* X X X X
* X X X X
* X X X X
* X X X X
* X X X X
* X X X X
* first 1
* time 900
* 1. b1(k) b8(P)
* 2. b5(c) c7(p)
* 3. a7(G) d3(c)
* 4. a6(M) d1(g)
* 5. a4(g) d7(p)
* 6. c8(p) d6(P)
* 7. a5(m) b6(r)
* 8. c5(R) c2(C)
* 9. d8(P) d2(n)
* 10. a3(m) c3(M)
* 11. b2(P) d5(C)
* 12. a8(p) b7(n)
* 13. b3(P) d4(K)
* 14. c6(R) d8-c8
* 15. b4(N) a2(p)
* 16. d7-d8 a1(G)
* 17. c7-d7 c4(r)
* 18. d7-c7 a7-b7
* 19. a8-a7 a1-a2
* 20. d8-d7 a2-a1
* 21. d7-d8 a1-a2
* 22. d8-d7 a2-a1
* 23. d7-d8 a1-a2
* 24. d8-d7 a2-a1
* 25. d7-d8 a1-a2
* PositionRepetitionDraw,3,4 a0_mu Draw 0.500000,0.500000
* Comment 0 0
0. 1771416877358
1. 1771416877358
2. 1771416878550
3. 1771416879504
4. 1771416880503
5. 1771416881459
6. 1771416882457
7. 1771416883415
8. 1771416884411
9. 1771416885370
10. 1771416886365
11. 1771416887325
12. 1771416888319
13. 1771416889280
14. 1771416890323
15. 1771416891286
16. 1771416892327
17. 1771416893291
18. 1771416894331
19. 1771416895296
20. 1771416896335
21. 1771416897351
22. 1771416898387
23. 1771416899356
24. 1771416900392
25. 1771416901361
26. 1771416902396
27. 1771416903367
28. 1771416904399
29. 1771416905372
30. 1771416906402
31. 1771416907377
32. 1771416908406
33. 1771416909383
34. 1771416910409
35. 1771416911388
36. 1771416912412
37. 1771416913393
38. 1771416914415
39. 1771416915399
40. 1771416916419
41. 1771416917404
42. 1771416918423
43. 1771416919410
44. 1771416920426
45. 1771416921465
46. 1771416922480
47. 1771416923470
48. 1771416924484
49. 1771416925473
50. 1771416926486

# 10 12 46 48 82 84 118 120 154 156 190 192 226 228 262 264 298 300 334 336 370 372 406 408 442 444 478 480 514 516 550 552 586 588 622 624 658 660 694 696 730 732 766 768 802 804 838 840 874 876 #
LightZero MGTP Interface Ready
=1 LightZero_DarkChess

=2 1.0.0

=7 

=15 

=14 

=12 b1 b1

[debug] move action_id=319, action=((7, 1), (7, 1)), 
[debug] current_player=1 (R), 
[debug] board[(7, 1)]=7, board[(7, 1)]=7, 
[debug] board state:
[[15 15 15 15]
 [15 15 15 15]
 [15 15 15 15]
 [15 15 15 15]
 [15 15 15 15]
 [15 15 15 15]
 [15 15 15 15]
 [15  7 15 15]], 

=11 

=16 

[debug] move action_id=11, action=((0, 1), (0, 1)), 
[debug] current_player=0 (B), 
[debug] board[(0, 1)]=6, board[(0, 1)]=6, 
[debug] board state:
[[15  6 15 15]
 [15 15 15 15]
 [15 15 15 15]
 [15 15 15 15]
 [15 15 15 15]
 [15 15 15 15]
 [15 15 15 15]
 [15  7 15 15]], 

=11 

=16 

=12 b5 b5

[debug] move action_id=143, action=((3, 1), (3, 1)), 
[debug] current_player=1 (R), 
[debug] board[(3, 1)]=12, board[(3, 1)]=12, 
[debug] board state:
[[15  6 15 15]
 [15 15 15 15]
 [15 15 15 15]
 [15 12 15 15]
 [15 15 15 15]
 [15 15 15 15]
 [15 15 15 15]
 [15  7 15 15]], 

=11 

=16 

[debug] move action_id=66, action=((1, 2), (1, 2)), 
[debug] current_player=0 (B), 
[debug] board[(1, 2)]=13, board[(1, 2)]=13, 
[debug] board state:
[[15  6 15 15]
 [15 15 13 15]
 [15 15 15 15]
 [15 12 15 15]
 [15 15 15 15]
 [15 15 15 15]
 [15 15 15 15]
 [15  7 15 15]], 

=11 

=16 

=12 a7 a7

[debug] move action_id=44, action=((1, 0), (1, 0)), 
[debug] current_player=1 (R), 
[debug] board[(1, 0)]=1, board[(1, 0)]=1, 
[debug] board state:
[[15  6 15 15]
 [ 1 15 13 15]
 [15 15 15 15]
 [15 12 15 15]
 [15 15 15 15]
 [15 15 15 15]
 [15 15 15 15]
 [15  7 15 15]], 

=11 

=16 

[debug] move action_id=253, action=((5, 3), (5, 3)), 
[debug] current_player=0 (B), 
[debug] board[(5, 3)]=12, board[(5, 3)]=12, 
[debug] board state:
[[15  6 15 15]
 [ 1 15 13 15]
 [15 15 15 15]
 [15 12 15 15]
 [15 15 15 15]
 [15 15 15 12]
 [15 15 15 15]
 [15  7 15 15]], 

=11 

=16 

=12 a6 a6

[debug] move action_id=88, action=((2, 0), (2, 0)), 
[debug] current_player=1 (R), 
[debug] board[(2, 0)]=2, board[(2, 0)]=2, 
[debug] board state:
[[15  6 15 15]
 [ 1 15 13 15]
 [ 2 15 15 15]
 [15 12 15 15]
 [15 15 15 15]
 [15 15 15 12]
 [15 15 15 15]
 [15  7 15 15]], 

=11 

=16 

[debug] move action_id=341, action=((7, 3), (7, 3)), 
[debug] current_player=0 (B), 
[debug] board[(7, 3)]=8, board[(7, 3)]=8, 
[debug] board state:
[[15  6 15 15]
 [ 1 15 13 15]
 [ 2 15 15 15]
 [15 12 15 15]
 [15 15 15 15]
 [15 15 15 12]
 [15 15 15 15]
 [15  7 15  8]], 

=11 

=16 

=12 a4 a4

[debug] move action_id=176, action=((4, 0), (4, 0)), 
[debug] current_player=1 (R), 
[debug] board[(4, 0)]=8, board[(4, 0)]=8, 
[debug] board state:
[[15  6 15 15]
 [ 1 15 13 15]
 [ 2 15 15 15]
 [15 12 15 15]
 [ 8 15 15 15]
 [15 15 15 12]
 [15 15 15 15]
 [15  7 15  8]], 

=11 

=16 

[debug] move action_id=77, action=((1, 3), (1, 3)), 
[debug] current_player=0 (B), 
[debug] board[(1, 3)]=13, board[(1, 3)]=13, 
[debug] board state:
[[15  6 15 15]
 [ 1 15 13 13]
 [ 2 15 15 15]
 [15 12 15 15]
 [ 8 15 15 15]
 [15 15 15 12]
 [15 15 15 15]
 [15  7 15  8]], 

=11 

=16 

=12 c8 c8

[debug] move action_id=22, action=((0, 2), (0, 2)), 
[debug] current_player=1 (R), 
[debug] board[(0, 2)]=13, board[(0, 2)]=13, 
[debug] board state:
[[15  6 13 15]
 [ 1 15 13 13]
 [ 2 15 15 15]
 [15 12 15 15]
 [ 8 15 15 15]
 [15 15 15 12]
 [15 15 15 15]
 [15  7 15  8]], 

=11 

=16 

[debug] move action_id=121, action=((2, 3), (2, 3)), 
[debug] current_player=0 (B), 
[debug] board[(2, 3)]=6, board[(2, 3)]=6, 
[debug] board state:
[[15  6 13 15]
 [ 1 15 13 13]
 [ 2 15 15  6]
 [15 12 15 15]
 [ 8 15 15 15]
 [15 15 15 12]
 [15 15 15 15]
 [15  7 15  8]], 

=11 

=16 

=12 a5 a5

[debug] move action_id=132, action=((3, 0), (3, 0)), 
[debug] current_player=1 (R), 
[debug] board[(3, 0)]=9, board[(3, 0)]=9, 
[debug] board state:
[[15  6 13 15]
 [ 1 15 13 13]
 [ 2 15 15  6]
 [ 9 12 15 15]
 [ 8 15 15 15]
 [15 15 15 12]
 [15 15 15 15]
 [15  7 15  8]], 

=11 

=16 

[debug] move action_id=99, action=((2, 1), (2, 1)), 
[debug] current_player=0 (B), 
[debug] board[(2, 1)]=10, board[(2, 1)]=10, 
[debug] board state:
[[15  6 13 15]
 [ 1 15 13 13]
 [ 2 10 15  6]
 [ 9 12 15 15]
 [ 8 15 15 15]
 [15 15 15 12]
 [15 15 15 15]
 [15  7 15  8]], 

=11 

=16 

=12 c5 c5

[debug] move action_id=154, action=((3, 2), (3, 2)), 
[debug] current_player=1 (R), 
[debug] board[(3, 2)]=3, board[(3, 2)]=3, 
[debug] board state:
[[15  6 13 15]
 [ 1 15 13 13]
 [ 2 10 15  6]
 [ 9 12  3 15]
 [ 8 15 15 15]
 [15 15 15 12]
 [15 15 15 15]
 [15  7 15  8]], 

=11 

=16 

[debug] move action_id=286, action=((6, 2), (6, 2)), 
[debug] current_player=0 (B), 
[debug] board[(6, 2)]=5, board[(6, 2)]=5, 
[debug] board state:
[[15  6 13 15]
 [ 1 15 13 13]
 [ 2 10 15  6]
 [ 9 12  3 15]
 [ 8 15 15 15]
 [15 15 15 12]
 [15 15  5 15]
 [15  7 15  8]], 

=11 

=16 

=12 d8 d8

[debug] move action_id=33, action=((0, 3), (0, 3)), 
[debug] current_player=1 (R), 
[debug] board[(0, 3)]=6, board[(0, 3)]=6, 
[debug] board state:
[[15  6 13  6]
 [ 1 15 13 13]
 [ 2 10 15  6]
 [ 9 12  3 15]
 [ 8 15 15 15]
 [15 15 15 12]
 [15 15  5 15]
 [15  7 15  8]], 

=11 

=16 

[debug] move action_id=297, action=((6, 3), (6, 3)), 
[debug] current_player=0 (B), 
[debug] board[(6, 3)]=11, board[(6, 3)]=11, 
[debug] board state:
[[15  6 13  6]
 [ 1 15 13 13]
 [ 2 10 15  6]
 [ 9 12  3 15]
 [ 8 15 15 15]
 [15 15 15 12]
 [15 15  5 11]
 [15  7 15  8]], 

=11 

=16 

=12 a3 a3

[debug] move action_id=220, action=((5, 0), (5, 0)), 
[debug] current_player=1 (R), 
[debug] board[(5, 0)]=9, board[(5, 0)]=9, 
[debug] board state:
[[15  6 13  6]
 [ 1 15 13 13]
 [ 2 10 15  6]
 [ 9 12  3 15]
 [ 8 15 15 15]
 [ 9 15 15 12]
 [15 15  5 11]
 [15  7 15  8]], 

=11 

=16 

[debug] move action_id=242, action=((5, 2), (5, 2)), 
[debug] current_player=0 (B), 
[debug] board[(5, 2)]=2, board[(5, 2)]=2, 
[debug] board state:
[[15  6 13  6]
 [ 1 15 13 13]
 [ 2 10 15  6]
 [ 9 12  3 15]
 [ 8 15 15 15]
 [ 9 15  2 12]
 [15 15  5 11]
 [15  7 15  8]], 

=11 

=16 

=12 b2 b2

[debug] move action_id=275, action=((6, 1), (6, 1)), 
[debug] current_player=1 (R), 
[debug] board[(6, 1)]=6, board[(6, 1)]=6, 
[debug] board state:
[[15  6 13  6]
 [ 1 15 13 13]
 [ 2 10 15  6]
 [ 9 12  3 15]
 [ 8 15 15 15]
 [ 9 15  2 12]
 [15  6  5 11]
 [15  7 15  8]], 

=11 

=16 

[debug] move action_id=165, action=((3, 3), (3, 3)), 
[debug] current_player=0 (B), 
[debug] board[(3, 3)]=5, board[(3, 3)]=5, 
[debug] board state:
[[15  6 13  6]
 [ 1 15 13 13]
 [ 2 10 15  6]
 [ 9 12  3  5]
 [ 8 15 15 15]
 [ 9 15  2 12]
 [15  6  5 11]
 [15  7 15  8]], 

=11 

=16 

=12 a8 a8

[debug] move action_id=0, action=((0, 0), (0, 0)), 
[debug] current_player=1 (R), 
[debug] board[(0, 0)]=13, board[(0, 0)]=13, 
[debug] board state:
[[13  6 13  6]
 [ 1 15 13 13]
 [ 2 10 15  6]
 [ 9 12  3  5]
 [ 8 15 15 15]
 [ 9 15  2 12]
 [15  6  5 11]
 [15  7 15  8]], 

=11 

=16 

[debug] move action_id=55, action=((1, 1), (1, 1)), 
[debug] current_player=0 (B), 
[debug] board[(1, 1)]=11, board[(1, 1)]=11, 
[debug] board state:
[[13  6 13  6]
 [ 1 11 13 13]
 [ 2 10 15  6]
 [ 9 12  3  5]
 [ 8 15 15 15]
 [ 9 15  2 12]
 [15  6  5 11]
 [15  7 15  8]], 

=11 

=16 

=12 b3 b3

[debug] move action_id=231, action=((5, 1), (5, 1)), 
[debug] current_player=1 (R), 
[debug] board[(5, 1)]=6, board[(5, 1)]=6, 
[debug] board state:
[[13  6 13  6]
 [ 1 11 13 13]
 [ 2 10 15  6]
 [ 9 12  3  5]
 [ 8 15 15 15]
 [ 9  6  2 12]
 [15  6  5 11]
 [15  7 15  8]], 

=11 

=16 

[debug] move action_id=209, action=((4, 3), (4, 3)), 
[debug] current_player=0 (B), 
[debug] board[(4, 3)]=0, board[(4, 3)]=0, 
[debug] board state:
[[13  6 13  6]
 [ 1 11 13 13]
 [ 2 10 15  6]
 [ 9 12  3  5]
 [ 8 15 15  0]
 [ 9  6  2 12]
 [15  6  5 11]
 [15  7 15  8]], 

=11 

=16 

=12 c6 c6

[debug] move action_id=110, action=((2, 2), (2, 2)), 
[debug] current_player=1 (R), 
[debug] board[(2, 2)]=3, board[(2, 2)]=3, 
[debug] board state:
[[13  6 13  6]
 [ 1 11 13 13]
 [ 2 10  3  6]
 [ 9 12  3  5]
 [ 8 15 15  0]
 [ 9  6  2 12]
 [15  6  5 11]
 [15  7 15  8]], 

=11 

=16 

[debug] move action_id=43, action=((0, 3), (0, 2)), 
[debug] current_player=0 (B), 
[debug] board[(0, 3)]=14, board[(0, 2)]=6, 
[debug] board state:
[[13  6  6 14]
 [ 1 11 13 13]
 [ 2 10  3  6]
 [ 9 12  3  5]
 [ 8 15 15  0]
 [ 9  6  2 12]
 [15  6  5 11]
 [15  7 15  8]], 

=10 

=16 

=12 b4 b4

[debug] move action_id=187, action=((4, 1), (4, 1)), 
[debug] current_player=1 (R), 
[debug] board[(4, 1)]=4, board[(4, 1)]=4, 
[debug] board state:
[[13  6  6 14]
 [ 1 11 13 13]
 [ 2 10  3  6]
 [ 9 12  3  5]
 [ 8  4 15  0]
 [ 9  6  2 12]
 [15  6  5 11]
 [15  7 15  8]], 

=11 

=16 

[debug] move action_id=264, action=((6, 0), (6, 0)), 
[debug] current_player=0 (B), 
[debug] board[(6, 0)]=13, board[(6, 0)]=13, 
[debug] board state:
[[13  6  6 14]
 [ 1 11 13 13]
 [ 2 10  3  6]
 [ 9 12  3  5]
 [ 8  4 15  0]
 [ 9  6  2 12]
 [13  6  5 11]
 [15  7 15  8]], 

=11 

=16 

=12 d7 d8

[debug] move action_id=34, action=((1, 3), (0, 3)), 
[debug] current_player=1 (R), 
[debug] board[(1, 3)]=14, board[(0, 3)]=13, 
[debug] board state:
[[13  6  6 13]
 [ 1 11 13 14]
 [ 2 10  3  6]
 [ 9 12  3  5]
 [ 8  4 15  0]
 [ 9  6  2 12]
 [13  6  5 11]
 [15  7 15  8]], 

=10 

=16 

[debug] move action_id=308, action=((7, 0), (7, 0)), 
[debug] current_player=0 (B), 
[debug] board[(7, 0)]=1, board[(7, 0)]=1, 
[debug] board state:
[[13  6  6 13]
 [ 1 11 13 14]
 [ 2 10  3  6]
 [ 9 12  3  5]
 [ 8  4 15  0]
 [ 9  6  2 12]
 [13  6  5 11]
 [ 1  7 15  8]], 

=11 

=16 

=12 c7 d7

[debug] move action_id=76, action=((1, 2), (1, 3)), 
[debug] current_player=1 (R), 
[debug] board[(1, 2)]=14, board[(1, 3)]=13, 
[debug] board state:
[[13  6  6 13]
 [ 1 11 14 13]
 [ 2 10  3  6]
 [ 9 12  3  5]
 [ 8  4 15  0]
 [ 9  6  2 12]
 [13  6  5 11]
 [ 1  7 15  8]], 

=10 

=16 

[debug] move action_id=198, action=((4, 2), (4, 2)), 
[debug] current_player=0 (B), 
[debug] board[(4, 2)]=10, board[(4, 2)]=10, 
[debug] board state:
[[13  6  6 13]
 [ 1 11 14 13]
 [ 2 10  3  6]
 [ 9 12  3  5]
 [ 8  4 10  0]
 [ 9  6  2 12]
 [13  6  5 11]
 [ 1  7 15  8]], 

=11 

=16 

=12 d7 c7

[debug] move action_id=87, action=((1, 3), (1, 2)), 
[debug] current_player=1 (R), 
[debug] board[(1, 3)]=14, board[(1, 2)]=13, 
[debug] board state:
[[13  6  6 13]
 [ 1 11 13 14]
 [ 2 10  3  6]
 [ 9 12  3  5]
 [ 8  4 10  0]
 [ 9  6  2 12]
 [13  6  5 11]
 [ 1  7 15  8]], 

=10 

=16 

[debug] move action_id=52, action=((1, 0), (1, 1)), 
[debug] current_player=0 (B), 
[debug] board[(1, 0)]=14, board[(1, 1)]=1, 
[debug] board state:
[[13  6  6 13]
 [14  1 13 14]
 [ 2 10  3  6]
 [ 9 12  3  5]
 [ 8  4 10  0]
 [ 9  6  2 12]
 [13  6  5 11]
 [ 1  7 15  8]], 

=10 

=16 

=12 a8 a7

[debug] move action_id=45, action=((0, 0), (1, 0)), 
[debug] current_player=1 (R), 
[debug] board[(0, 0)]=14, board[(1, 0)]=13, 
[debug] board state:
[[14  6  6 13]
 [13  1 13 14]
 [ 2 10  3  6]
 [ 9 12  3  5]
 [ 8  4 10  0]
 [ 9  6  2 12]
 [13  6  5 11]
 [ 1  7 15  8]], 

=10 

=16 

[debug] move action_id=271, action=((7, 0), (6, 0)), 
[debug] current_player=0 (B), 
[debug] board[(7, 0)]=14, board[(6, 0)]=1, 
[debug] board state:
[[14  6  6 13]
 [13  1 13 14]
 [ 2 10  3  6]
 [ 9 12  3  5]
 [ 8  4 10  0]
 [ 9  6  2 12]
 [ 1  6  5 11]
 [14  7 15  8]], 

=10 

=16 

=12 d8 d7

[debug] move action_id=78, action=((0, 3), (1, 3)), 
[debug] current_player=1 (R), 
[debug] board[(0, 3)]=14, board[(1, 3)]=13, 
[debug] board state:
[[14  6  6 14]
 [13  1 13 13]
 [ 2 10  3  6]
 [ 9 12  3  5]
 [ 8  4 10  0]
 [ 9  6  2 12]
 [ 1  6  5 11]
 [14  7 15  8]], 

=10 

=16 

[debug] move action_id=315, action=((6, 0), (7, 0)), 
[debug] current_player=0 (B), 
[debug] board[(6, 0)]=14, board[(7, 0)]=1, 
[debug] board state:
[[14  6  6 14]
 [13  1 13 13]
 [ 2 10  3  6]
 [ 9 12  3  5]
 [ 8  4 10  0]
 [ 9  6  2 12]
 [14  6  5 11]
 [ 1  7 15  8]], 

=10 

=16 

=12 d7 d8

[debug] move action_id=34, action=((1, 3), (0, 3)), 
[debug] current_player=1 (R), 
[debug] board[(1, 3)]=14, board[(0, 3)]=13, 
[debug] board state:
[[14  6  6 13]
 [13  1 13 14]
 [ 2 10  3  6]
 [ 9 12  3  5]
 [ 8  4 10  0]
 [ 9  6  2 12]
 [14  6  5 11]
 [ 1  7 15  8]], 

=10 

=16 

[debug] move action_id=271, action=((7, 0), (6, 0)), 
[debug] current_player=0 (B), 
[debug] board[(7, 0)]=14, board[(6, 0)]=1, 
[debug] board state:
[[14  6  6 13]
 [13  1 13 14]
 [ 2 10  3  6]
 [ 9 12  3  5]
 [ 8  4 10  0]
 [ 9  6  2 12]
 [ 1  6  5 11]
 [14  7 15  8]], 

=10 

=16 

=12 d8 d7

[debug] move action_id=78, action=((0, 3), (1, 3)), 
[debug] current_player=1 (R), 
[debug] board[(0, 3)]=14, board[(1, 3)]=13, 
[debug] board state:
[[14  6  6 14]
 [13  1 13 13]
 [ 2 10  3  6]
 [ 9 12  3  5]
 [ 8  4 10  0]
 [ 9  6  2 12]
 [ 1  6  5 11]
 [14  7 15  8]], 

=10 

=16 

[debug] move action_id=315, action=((6, 0), (7, 0)), 
[debug] current_player=0 (B), 
[debug] board[(6, 0)]=14, board[(7, 0)]=1, 
[debug] board state:
[[14  6  6 14]
 [13  1 13 13]
 [ 2 10  3  6]
 [ 9 12  3  5]
 [ 8  4 10  0]
 [ 9  6  2 12]
 [14  6  5 11]
 [ 1  7 15  8]], 

=10 

=16 

=12 d7 d8

[debug] move action_id=34, action=((1, 3), (0, 3)), 
[debug] current_player=1 (R), 
[debug] board[(1, 3)]=14, board[(0, 3)]=13, 
[debug] board state:
[[14  6  6 13]
 [13  1 13 14]
 [ 2 10  3  6]
 [ 9 12  3  5]
 [ 8  4 10  0]
 [ 9  6  2 12]
 [14  6  5 11]
 [ 1  7 15  8]], 

=10 

=16 

[debug] move action_id=271, action=((7, 0), (6, 0)), 
[debug] current_player=0 (B), 
[debug] board[(7, 0)]=14, board[(6, 0)]=1, 
[debug] board state:
[[14  6  6 13]
 [13  1 13 14]
 [ 2 10  3  6]
 [ 9 12  3  5]
 [ 8  4 10  0]
 [ 9  6  2 12]
 [ 1  6  5 11]
 [14  7 15  8]], 

=10 

=16 

=12 d8 d7

[debug] move action_id=78, action=((0, 3), (1, 3)), 
[debug] current_player=1 (R), 
[debug] board[(0, 3)]=14, board[(1, 3)]=13, 
[debug] board state:
[[14  6  6 14]
 [13  1 13 13]
 [ 2 10  3  6]
 [ 9 12  3  5]
 [ 8  4 10  0]
 [ 9  6  2 12]
 [ 1  6  5 11]
 [14  7 15  8]], 

=10 

=16 

[debug] move action_id=315, action=((6, 0), (7, 0)), 
[debug] current_player=0 (B), 
[debug] board[(6, 0)]=14, board[(7, 0)]=1, 
[debug] board state:
[[14  6  6 14]
 [13  1 13 13]
 [ 2 10  3  6]
 [ 9 12  3  5]
 [ 8  4 10  0]
 [ 9  6  2 12]
 [14  6  5 11]
 [ 1  7 15  8]], 

=10 

=16 

=12 d7 d8

[debug] move action_id=34, action=((1, 3), (0, 3)), 
[debug] current_player=1 (R), 
[debug] board[(1, 3)]=14, board[(0, 3)]=13, 
[debug] board state:
[[14  6  6 13]
 [13  1 13 14]
 [ 2 10  3  6]
 [ 9 12  3  5]
 [ 8  4 10  0]
 [ 9  6  2 12]
 [14  6  5 11]
 [ 1  7 15  8]], 

=10 

=16 

[debug] move action_id=271, action=((7, 0), (6, 0)), 
[debug] current_player=0 (B), 
[debug] board[(7, 0)]=14, board[(6, 0)]=1, 
[debug] board state:
[[14  6  6 13]
 [13  1 13 14]
 [ 2 10  3  6]
 [ 9 12  3  5]
 [ 8  4 10  0]
 [ 9  6  2 12]
 [ 1  6  5 11]
 [14  7 15  8]], 

=10 

=16 


# 10 12 46 48 82 84 118 120 154 156 190 192 226 228 262 264 298 300 334 336 370 372 406 408 442 444 478 480 514 516 550 552 586 588 622 624 658 660 694 696 730 732 766 768 802 804 838 840 874 876 #
/home/ntcucsk201/anaconda3/envs/darkchess/lib/python3.10/site-packages/treevalue/tree/integration/torch.py:23: FutureWarning: `torch.utils._pytree._register_pytree_node` is deprecated. Please use `torch.utils._pytree.register_pytree_node` instead.
  register_for_torch(TreeValue)
/home/ntcucsk201/anaconda3/envs/darkchess/lib/python3.10/site-packages/treevalue/tree/integration/torch.py:24: FutureWarning: `torch.utils._pytree._register_pytree_node` is deprecated. Please use `torch.utils._pytree.register_pytree_node` instead.
  register_for_torch(FastTreeValue)
Gym has been unmaintained since 2022 and does not support NumPy 2.0 amongst other critical functionality.
Please upgrade to Gymnasium, the maintained drop-in replacement of Gym, or contact the authors of your software and request that they upgrade.
See the migration guide at https://gymnasium.farama.org/introduction/migration_guide/ for additional information.
[DEBUG] Config loaded successfully
/home/ntcucsk201/DarkChess/LightZero/zoo/board_games/darkchess/muzero_mgtp.py:38: FutureWarning: You are using `torch.load` with `weights_only=False` (the current default value), which uses the default pickle module implicitly. It is possible to construct malicious pickle data which will execute arbitrary code during unpickling (See https://github.com/pytorch/pytorch/blob/main/SECURITY.md#untrusted-models for more details). In a future release, the default value for `weights_only` will be flipped to `True`. This limits the functions that could be executed during unpickling. Arbitrary objects will no longer be allowed to be loaded via this mode unless they are explicitly allowlisted by the user via `torch.serialization.add_safe_globals`. We recommend you start setting `weights_only=True` for any use case where you don't have full control of the loaded file. Please open an issue on GitHub for any issues related to this experimental feature.
  checkpoint = torch.load(model_path, map_location='cpu')
[DEBUG] Model moved to device: cuda:0

###
Account: a0_mu
Mode: MGTP
Path: /home/ntcucsk201/anaconda3/envs/darkchess/bin/python
Arg: /home/ntcucsk201/DarkChess/LightZero/zoo/board_games/darkchess/muzero_mgtp.py -model_path /home/ntcucsk201/DarkChess/LightZero/zoo/board_games/darkchess/data_muzero/darkchess_muzero_ns1000_upc50_rer0.0_bs512/ckpt/ckpt_best.pth.tar -config_path /home/ntcucsk201/DarkChess/LightZero/zoo/board_games/darkchess/data_muzero/darkchess_muzero_ns1000_upc50_rer0.0_bs512/formatted_total_config.py
Name: LightZero_DarkChess
Version: 1.0.0
###
