INITIAL
* 8:27pm Feb 18, 2026
* a0_mu vs a1_lightzero
* 1 2 2 2 2 2 5 1 2 2 2 2 2 5
* X X X X
* X X X X
* X X X X
* X X X X
* X X X X
* X X X X
* X X X X
* X X X X
* first 0
* time 900
* 1. b1(P) b8(p)
* 2. c7(C) a4(p)
* 3. b5(P) d7(p)
* 4. a7(K) d3(m)
* 5. a6(r) d1(p)
* 6. c8(k) d6(c)
* 7. c5(r) d2(n)
* 8. d4(c) a1(M)
* 9. c2(n) d8(P)
* 10. c3(M) d5(R)
* 11. b2(p) a5(C)
* 12. a8(N) b6(P)
* 13. b7(P) a3(g)
* 14. b3(m) a2(N)
* 15. c6(R) c4(G)
* 16. b4(G) c1(g)
* 17. c4-d4 c1-b1
* 18. d4-c4 b1-c1
* 19. a1-b1 d3-d4
* 20. a2-a1 a3-a2
* 21. a8-b8 a2-a3
* 22. a1-a2 d2-d3
* 23. a2-a1 a3-a2
* 24. c4-d4 a2-a3
* 25. d4-c4 d3-d4
* 26. a1-a2 d1-d2
* 27. a2-a1 c1-d1
* 28. a1-a2 d1-c1
* 29. a2-a1 c1-d1
* 30. a1-a2 d1-c1
* 31. a2-a1 c1-d1
* 32. a1-a2 d1-c1
* PositionRepetitionDraw,3,4 a0_mu Draw 0.500000,0.500000
* Comment 0 0
0. 1771417630883
1. 1771417630883
2. 1771417632072
3. 1771417633028
4. 1771417634026
5. 1771417634982
6. 1771417635930
7. 1771417636886
8. 1771417637882
9. 1771417638839
10. 1771417639835
11. 1771417640793
12. 1771417641788
13. 1771417642747
14. 1771417643741
15. 1771417644701
16. 1771417645744
17. 1771417646704
18. 1771417647698
19. 1771417648708
20. 1771417649701
21. 1771417650662
22. 1771417651704
23. 1771417652667
24. 1771417653708
25. 1771417654671
26. 1771417655711
27. 1771417656676
28. 1771417657714
29. 1771417658680
30. 1771417659668
31. 1771417660635
32. 1771417661671
33. 1771417662640
34. 1771417663674
35. 1771417664645
36. 1771417665678
37. 1771417666649
38. 1771417667681
39. 1771417668653
40. 1771417669634
41. 1771417670607
42. 1771417671588
43. 1771417672561
44. 1771417673592
45. 1771417674567
46. 1771417675594
47. 1771417676571
48. 1771417677597
49. 1771417678576
50. 1771417679600
51. 1771417680581
52. 1771417681603
53. 1771417682586
54. 1771417683605
55. 1771417684591
56. 1771417685608
57. 1771417686596
58. 1771417687610
59. 1771417688601
60. 1771417689613
61. 1771417690606
62. 1771417691616
63. 1771417692611
64. 1771417693618

# 10 12 46 48 82 84 118 120 154 156 190 192 226 228 262 264 298 300 334 336 370 372 406 408 442 444 478 480 514 516 550 552 586 588 622 624 658 660 694 696 730 732 766 768 802 804 838 840 874 876 910 912 946 948 982 984 1018 1020 1054 1056 1090 1092 1126 1128 #
LightZero MGTP Interface Ready
=1 LightZero_DarkChess

=2 1.0.0

=7 

=15 

=14 

=12 b1 b1

[debug] move action_id=319, action=((7, 1), (7, 1)), 
[debug] current_player=1 (B), 
[debug] board[(7, 1)]=6, board[(7, 1)]=6, 
[debug] board state:
[[15 15 15 15]
 [15 15 15 15]
 [15 15 15 15]
 [15 15 15 15]
 [15 15 15 15]
 [15 15 15 15]
 [15 15 15 15]
 [15  6 15 15]], 

=11 

=16 

[debug] move action_id=11, action=((0, 1), (0, 1)), 
[debug] current_player=0 (R), 
[debug] board[(0, 1)]=13, board[(0, 1)]=13, 
[debug] board state:
[[15 13 15 15]
 [15 15 15 15]
 [15 15 15 15]
 [15 15 15 15]
 [15 15 15 15]
 [15 15 15 15]
 [15 15 15 15]
 [15  6 15 15]], 

=11 

=16 

=12 c7 c7

[debug] move action_id=66, action=((1, 2), (1, 2)), 
[debug] current_player=1 (B), 
[debug] board[(1, 2)]=5, board[(1, 2)]=5, 
[debug] board state:
[[15 13 15 15]
 [15 15  5 15]
 [15 15 15 15]
 [15 15 15 15]
 [15 15 15 15]
 [15 15 15 15]
 [15 15 15 15]
 [15  6 15 15]], 

=11 

=16 

[debug] move action_id=176, action=((4, 0), (4, 0)), 
[debug] current_player=0 (R), 
[debug] board[(4, 0)]=13, board[(4, 0)]=13, 
[debug] board state:
[[15 13 15 15]
 [15 15  5 15]
 [15 15 15 15]
 [15 15 15 15]
 [13 15 15 15]
 [15 15 15 15]
 [15 15 15 15]
 [15  6 15 15]], 

=11 

=16 

=12 b5 b5

[debug] move action_id=143, action=((3, 1), (3, 1)), 
[debug] current_player=1 (B), 
[debug] board[(3, 1)]=6, board[(3, 1)]=6, 
[debug] board state:
[[15 13 15 15]
 [15 15  5 15]
 [15 15 15 15]
 [15  6 15 15]
 [13 15 15 15]
 [15 15 15 15]
 [15 15 15 15]
 [15  6 15 15]], 

=11 

=16 

[debug] move action_id=77, action=((1, 3), (1, 3)), 
[debug] current_player=0 (R), 
[debug] board[(1, 3)]=13, board[(1, 3)]=13, 
[debug] board state:
[[15 13 15 15]
 [15 15  5 13]
 [15 15 15 15]
 [15  6 15 15]
 [13 15 15 15]
 [15 15 15 15]
 [15 15 15 15]
 [15  6 15 15]], 

=11 

=16 

=12 a7 a7

[debug] move action_id=44, action=((1, 0), (1, 0)), 
[debug] current_player=1 (B), 
[debug] board[(1, 0)]=0, board[(1, 0)]=0, 
[debug] board state:
[[15 13 15 15]
 [ 0 15  5 13]
 [15 15 15 15]
 [15  6 15 15]
 [13 15 15 15]
 [15 15 15 15]
 [15 15 15 15]
 [15  6 15 15]], 

=11 

=16 

[debug] move action_id=253, action=((5, 3), (5, 3)), 
[debug] current_player=0 (R), 
[debug] board[(5, 3)]=9, board[(5, 3)]=9, 
[debug] board state:
[[15 13 15 15]
 [ 0 15  5 13]
 [15 15 15 15]
 [15  6 15 15]
 [13 15 15 15]
 [15 15 15  9]
 [15 15 15 15]
 [15  6 15 15]], 

=11 

=16 

=12 a6 a6

[debug] move action_id=88, action=((2, 0), (2, 0)), 
[debug] current_player=1 (B), 
[debug] board[(2, 0)]=10, board[(2, 0)]=10, 
[debug] board state:
[[15 13 15 15]
 [ 0 15  5 13]
 [10 15 15 15]
 [15  6 15 15]
 [13 15 15 15]
 [15 15 15  9]
 [15 15 15 15]
 [15  6 15 15]], 

=11 

=16 

[debug] move action_id=341, action=((7, 3), (7, 3)), 
[debug] current_player=0 (R), 
[debug] board[(7, 3)]=13, board[(7, 3)]=13, 
[debug] board state:
[[15 13 15 15]
 [ 0 15  5 13]
 [10 15 15 15]
 [15  6 15 15]
 [13 15 15 15]
 [15 15 15  9]
 [15 15 15 15]
 [15  6 15 13]], 

=11 

=16 

=12 c8 c8

[debug] move action_id=22, action=((0, 2), (0, 2)), 
[debug] current_player=1 (B), 
[debug] board[(0, 2)]=7, board[(0, 2)]=7, 
[debug] board state:
[[15 13  7 15]
 [ 0 15  5 13]
 [10 15 15 15]
 [15  6 15 15]
 [13 15 15 15]
 [15 15 15  9]
 [15 15 15 15]
 [15  6 15 13]], 

=11 

=16 

[debug] move action_id=121, action=((2, 3), (2, 3)), 
[debug] current_player=0 (R), 
[debug] board[(2, 3)]=12, board[(2, 3)]=12, 
[debug] board state:
[[15 13  7 15]
 [ 0 15  5 13]
 [10 15 15 12]
 [15  6 15 15]
 [13 15 15 15]
 [15 15 15  9]
 [15 15 15 15]
 [15  6 15 13]], 

=11 

=16 

=12 c5 c5

[debug] move action_id=154, action=((3, 2), (3, 2)), 
[debug] current_player=1 (B), 
[debug] board[(3, 2)]=10, board[(3, 2)]=10, 
[debug] board state:
[[15 13  7 15]
 [ 0 15  5 13]
 [10 15 15 12]
 [15  6 10 15]
 [13 15 15 15]
 [15 15 15  9]
 [15 15 15 15]
 [15  6 15 13]], 

=11 

=16 

[debug] move action_id=297, action=((6, 3), (6, 3)), 
[debug] current_player=0 (R), 
[debug] board[(6, 3)]=11, board[(6, 3)]=11, 
[debug] board state:
[[15 13  7 15]
 [ 0 15  5 13]
 [10 15 15 12]
 [15  6 10 15]
 [13 15 15 15]
 [15 15 15  9]
 [15 15 15 11]
 [15  6 15 13]], 

=11 

=16 

=12 d4 d4

[debug] move action_id=209, action=((4, 3), (4, 3)), 
[debug] current_player=1 (B), 
[debug] board[(4, 3)]=12, board[(4, 3)]=12, 
[debug] board state:
[[15 13  7 15]
 [ 0 15  5 13]
 [10 15 15 12]
 [15  6 10 15]
 [13 15 15 12]
 [15 15 15  9]
 [15 15 15 11]
 [15  6 15 13]], 

=11 

=16 

[debug] move action_id=308, action=((7, 0), (7, 0)), 
[debug] current_player=0 (R), 
[debug] board[(7, 0)]=2, board[(7, 0)]=2, 
[debug] board state:
[[15 13  7 15]
 [ 0 15  5 13]
 [10 15 15 12]
 [15  6 10 15]
 [13 15 15 12]
 [15 15 15  9]
 [15 15 15 11]
 [ 2  6 15 13]], 

=11 

=16 

=12 c2 c2

[debug] move action_id=286, action=((6, 2), (6, 2)), 
[debug] current_player=1 (B), 
[debug] board[(6, 2)]=11, board[(6, 2)]=11, 
[debug] board state:
[[15 13  7 15]
 [ 0 15  5 13]
 [10 15 15 12]
 [15  6 10 15]
 [13 15 15 12]
 [15 15 15  9]
 [15 15 11 11]
 [ 2  6 15 13]], 

=11 

=16 

[debug] move action_id=33, action=((0, 3), (0, 3)), 
[debug] current_player=0 (R), 
[debug] board[(0, 3)]=6, board[(0, 3)]=6, 
[debug] board state:
[[15 13  7  6]
 [ 0 15  5 13]
 [10 15 15 12]
 [15  6 10 15]
 [13 15 15 12]
 [15 15 15  9]
 [15 15 11 11]
 [ 2  6 15 13]], 

=11 

=16 

=12 c3 c3

[debug] move action_id=242, action=((5, 2), (5, 2)), 
[debug] current_player=1 (B), 
[debug] board[(5, 2)]=2, board[(5, 2)]=2, 
[debug] board state:
[[15 13  7  6]
 [ 0 15  5 13]
 [10 15 15 12]
 [15  6 10 15]
 [13 15 15 12]
 [15 15  2  9]
 [15 15 11 11]
 [ 2  6 15 13]], 

=11 

=16 

[debug] move action_id=165, action=((3, 3), (3, 3)), 
[debug] current_player=0 (R), 
[debug] board[(3, 3)]=3, board[(3, 3)]=3, 
[debug] board state:
[[15 13  7  6]
 [ 0 15  5 13]
 [10 15 15 12]
 [15  6 10  3]
 [13 15 15 12]
 [15 15  2  9]
 [15 15 11 11]
 [ 2  6 15 13]], 

=11 

=16 

=12 b2 b2

[debug] move action_id=275, action=((6, 1), (6, 1)), 
[debug] current_player=1 (B), 
[debug] board[(6, 1)]=13, board[(6, 1)]=13, 
[debug] board state:
[[15 13  7  6]
 [ 0 15  5 13]
 [10 15 15 12]
 [15  6 10  3]
 [13 15 15 12]
 [15 15  2  9]
 [15 13 11 11]
 [ 2  6 15 13]], 

=11 

=16 

[debug] move action_id=132, action=((3, 0), (3, 0)), 
[debug] current_player=0 (R), 
[debug] board[(3, 0)]=5, board[(3, 0)]=5, 
[debug] board state:
[[15 13  7  6]
 [ 0 15  5 13]
 [10 15 15 12]
 [ 5  6 10  3]
 [13 15 15 12]
 [15 15  2  9]
 [15 13 11 11]
 [ 2  6 15 13]], 

=11 

=16 

=12 a8 a8

[debug] move action_id=0, action=((0, 0), (0, 0)), 
[debug] current_player=1 (B), 
[debug] board[(0, 0)]=4, board[(0, 0)]=4, 
[debug] board state:
[[ 4 13  7  6]
 [ 0 15  5 13]
 [10 15 15 12]
 [ 5  6 10  3]
 [13 15 15 12]
 [15 15  2  9]
 [15 13 11 11]
 [ 2  6 15 13]], 

=11 

=16 

[debug] move action_id=99, action=((2, 1), (2, 1)), 
[debug] current_player=0 (R), 
[debug] board[(2, 1)]=6, board[(2, 1)]=6, 
[debug] board state:
[[ 4 13  7  6]
 [ 0 15  5 13]
 [10  6 15 12]
 [ 5  6 10  3]
 [13 15 15 12]
 [15 15  2  9]
 [15 13 11 11]
 [ 2  6 15 13]], 

=11 

=16 

=12 b7 b7

[debug] move action_id=55, action=((1, 1), (1, 1)), 
[debug] current_player=1 (B), 
[debug] board[(1, 1)]=6, board[(1, 1)]=6, 
[debug] board state:
[[ 4 13  7  6]
 [ 0  6  5 13]
 [10  6 15 12]
 [ 5  6 10  3]
 [13 15 15 12]
 [15 15  2  9]
 [15 13 11 11]
 [ 2  6 15 13]], 

=11 

=16 

[debug] move action_id=220, action=((5, 0), (5, 0)), 
[debug] current_player=0 (R), 
[debug] board[(5, 0)]=8, board[(5, 0)]=8, 
[debug] board state:
[[ 4 13  7  6]
 [ 0  6  5 13]
 [10  6 15 12]
 [ 5  6 10  3]
 [13 15 15 12]
 [ 8 15  2  9]
 [15 13 11 11]
 [ 2  6 15 13]], 

=11 

=16 

=12 b3 b3

[debug] move action_id=231, action=((5, 1), (5, 1)), 
[debug] current_player=1 (B), 
[debug] board[(5, 1)]=9, board[(5, 1)]=9, 
[debug] board state:
[[ 4 13  7  6]
 [ 0  6  5 13]
 [10  6 15 12]
 [ 5  6 10  3]
 [13 15 15 12]
 [ 8  9  2  9]
 [15 13 11 11]
 [ 2  6 15 13]], 

=11 

=16 

[debug] move action_id=264, action=((6, 0), (6, 0)), 
[debug] current_player=0 (R), 
[debug] board[(6, 0)]=4, board[(6, 0)]=4, 
[debug] board state:
[[ 4 13  7  6]
 [ 0  6  5 13]
 [10  6 15 12]
 [ 5  6 10  3]
 [13 15 15 12]
 [ 8  9  2  9]
 [ 4 13 11 11]
 [ 2  6 15 13]], 

=11 

=16 

=12 c6 c6

[debug] move action_id=110, action=((2, 2), (2, 2)), 
[debug] current_player=1 (B), 
[debug] board[(2, 2)]=3, board[(2, 2)]=3, 
[debug] board state:
[[ 4 13  7  6]
 [ 0  6  5 13]
 [10  6  3 12]
 [ 5  6 10  3]
 [13 15 15 12]
 [ 8  9  2  9]
 [ 4 13 11 11]
 [ 2  6 15 13]], 

=11 

=16 

[debug] move action_id=198, action=((4, 2), (4, 2)), 
[debug] current_player=0 (R), 
[debug] board[(4, 2)]=1, board[(4, 2)]=1, 
[debug] board state:
[[ 4 13  7  6]
 [ 0  6  5 13]
 [10  6  3 12]
 [ 5  6 10  3]
 [13 15  1 12]
 [ 8  9  2  9]
 [ 4 13 11 11]
 [ 2  6 15 13]], 

=11 

=16 

=12 b4 b4

[debug] move action_id=187, action=((4, 1), (4, 1)), 
[debug] current_player=1 (B), 
[debug] board[(4, 1)]=1, board[(4, 1)]=1, 
[debug] board state:
[[ 4 13  7  6]
 [ 0  6  5 13]
 [10  6  3 12]
 [ 5  6 10  3]
 [13  1  1 12]
 [ 8  9  2  9]
 [ 4 13 11 11]
 [ 2  6 15 13]], 

=11 

=16 

[debug] move action_id=330, action=((7, 2), (7, 2)), 
[debug] current_player=0 (R), 
[debug] board[(7, 2)]=8, board[(7, 2)]=8, 
[debug] board state:
[[ 4 13  7  6]
 [ 0  6  5 13]
 [10  6  3 12]
 [ 5  6 10  3]
 [13  1  1 12]
 [ 8  9  2  9]
 [ 4 13 11 11]
 [ 2  6  8 13]], 

=11 

=16 

=12 c4 d4

[debug] move action_id=208, action=((4, 2), (4, 3)), 
[debug] current_player=1 (B), 
[debug] board[(4, 2)]=14, board[(4, 3)]=1, 
[debug] board state:
[[ 4 13  7  6]
 [ 0  6  5 13]
 [10  6  3 12]
 [ 5  6 10  3]
 [13  1 14  1]
 [ 8  9  2  9]
 [ 4 13 11 11]
 [ 2  6  8 13]], 

=10 

=16 

[debug] move action_id=339, action=((7, 2), (7, 1)), 
[debug] current_player=0 (R), 
[debug] board[(7, 2)]=14, board[(7, 1)]=8, 
[debug] board state:
[[ 4 13  7  6]
 [ 0  6  5 13]
 [10  6  3 12]
 [ 5  6 10  3]
 [13  1 14  1]
 [ 8  9  2  9]
 [ 4 13 11 11]
 [ 2  8 14 13]], 

=10 

=16 

=12 d4 c4

[debug] move action_id=219, action=((4, 3), (4, 2)), 
[debug] current_player=1 (B), 
[debug] board[(4, 3)]=14, board[(4, 2)]=1, 
[debug] board state:
[[ 4 13  7  6]
 [ 0  6  5 13]
 [10  6  3 12]
 [ 5  6 10  3]
 [13  1  1 14]
 [ 8  9  2  9]
 [ 4 13 11 11]
 [ 2  8 14 13]], 

=10 

=16 

[debug] move action_id=328, action=((7, 1), (7, 2)), 
[debug] current_player=0 (R), 
[debug] board[(7, 1)]=14, board[(7, 2)]=8, 
[debug] board state:
[[ 4 13  7  6]
 [ 0  6  5 13]
 [10  6  3 12]
 [ 5  6 10  3]
 [13  1  1 14]
 [ 8  9  2  9]
 [ 4 13 11 11]
 [ 2 14  8 13]], 

=10 

=16 

=12 a1 b1

[debug] move action_id=316, action=((7, 0), (7, 1)), 
[debug] current_player=1 (B), 
[debug] board[(7, 0)]=14, board[(7, 1)]=2, 
[debug] board state:
[[ 4 13  7  6]
 [ 0  6  5 13]
 [10  6  3 12]
 [ 5  6 10  3]
 [13  1  1 14]
 [ 8  9  2  9]
 [ 4 13 11 11]
 [14  2  8 13]], 

=10 

=16 

[debug] move action_id=214, action=((5, 3), (4, 3)), 
[debug] current_player=0 (R), 
[debug] board[(5, 3)]=14, board[(4, 3)]=9, 
[debug] board state:
[[ 4 13  7  6]
 [ 0  6  5 13]
 [10  6  3 12]
 [ 5  6 10  3]
 [13  1  1  9]
 [ 8  9  2 14]
 [ 4 13 11 11]
 [14  2  8 13]], 

=10 

=16 

=12 a2 a1

[debug] move action_id=315, action=((6, 0), (7, 0)), 
[debug] current_player=1 (B), 
[debug] board[(6, 0)]=14, board[(7, 0)]=4, 
[debug] board state:
[[ 4 13  7  6]
 [ 0  6  5 13]
 [10  6  3 12]
 [ 5  6 10  3]
 [13  1  1  9]
 [ 8  9  2 14]
 [14 13 11 11]
 [ 4  2  8 13]], 

=10 

=16 

[debug] move action_id=270, action=((5, 0), (6, 0)), 
[debug] current_player=0 (R), 
[debug] board[(5, 0)]=14, board[(6, 0)]=8, 
[debug] board state:
[[ 4 13  7  6]
 [ 0  6  5 13]
 [10  6  3 12]
 [ 5  6 10  3]
 [13  1  1  9]
 [14  9  2 14]
 [ 8 13 11 11]
 [ 4  2  8 13]], 

=10 

=16 

=12 a8 b8

[debug] move action_id=8, action=((0, 0), (0, 1)), 
[debug] current_player=1 (B), 
[debug] board[(0, 0)]=14, board[(0, 1)]=4, 
[debug] board state:
[[14  4  7  6]
 [ 0  6  5 13]
 [10  6  3 12]
 [ 5  6 10  3]
 [13  1  1  9]
 [14  9  2 14]
 [ 8 13 11 11]
 [ 4  2  8 13]], 

=10 

=16 

[debug] move action_id=226, action=((6, 0), (5, 0)), 
[debug] current_player=0 (R), 
[debug] board[(6, 0)]=14, board[(5, 0)]=8, 
[debug] board state:
[[14  4  7  6]
 [ 0  6  5 13]
 [10  6  3 12]
 [ 5  6 10  3]
 [13  1  1  9]
 [ 8  9  2 14]
 [14 13 11 11]
 [ 4  2  8 13]], 

=10 

=16 

=12 a1 a2

[debug] move action_id=271, action=((7, 0), (6, 0)), 
[debug] current_player=1 (B), 
[debug] board[(7, 0)]=14, board[(6, 0)]=4, 
[debug] board state:
[[14  4  7  6]
 [ 0  6  5 13]
 [10  6  3 12]
 [ 5  6 10  3]
 [13  1  1  9]
 [ 8  9  2 14]
 [ 4 13 11 11]
 [14  2  8 13]], 

=10 

=16 

[debug] move action_id=259, action=((6, 3), (5, 3)), 
[debug] current_player=0 (R), 
[debug] board[(6, 3)]=14, board[(5, 3)]=11, 
[debug] board state:
[[14  4  7  6]
 [ 0  6  5 13]
 [10  6  3 12]
 [ 5  6 10  3]
 [13  1  1  9]
 [ 8  9  2 11]
 [ 4 13 11 14]
 [14  2  8 13]], 

=10 

=16 

=12 a2 a1

[debug] move action_id=315, action=((6, 0), (7, 0)), 
[debug] current_player=1 (B), 
[debug] board[(6, 0)]=14, board[(7, 0)]=4, 
[debug] board state:
[[14  4  7  6]
 [ 0  6  5 13]
 [10  6  3 12]
 [ 5  6 10  3]
 [13  1  1  9]
 [ 8  9  2 11]
 [14 13 11 14]
 [ 4  2  8 13]], 

=10 

=16 

[debug] move action_id=270, action=((5, 0), (6, 0)), 
[debug] current_player=0 (R), 
[debug] board[(5, 0)]=14, board[(6, 0)]=8, 
[debug] board state:
[[14  4  7  6]
 [ 0  6  5 13]
 [10  6  3 12]
 [ 5  6 10  3]
 [13  1  1  9]
 [14  9  2 11]
 [ 8 13 11 14]
 [ 4  2  8 13]], 

=10 

=16 

=12 c4 d4

[debug] move action_id=208, action=((4, 2), (4, 3)), 
[debug] current_player=1 (B), 
[debug] board[(4, 2)]=14, board[(4, 3)]=1, 
[debug] board state:
[[14  4  7  6]
 [ 0  6  5 13]
 [10  6  3 12]
 [ 5  6 10  3]
 [13  1 14  1]
 [14  9  2 11]
 [ 8 13 11 14]
 [ 4  2  8 13]], 

=10 

=16 

[debug] move action_id=226, action=((6, 0), (5, 0)), 
[debug] current_player=0 (R), 
[debug] board[(6, 0)]=14, board[(5, 0)]=8, 
[debug] board state:
[[14  4  7  6]
 [ 0  6  5 13]
 [10  6  3 12]
 [ 5  6 10  3]
 [13  1 14  1]
 [ 8  9  2 11]
 [14 13 11 14]
 [ 4  2  8 13]], 

=10 

=16 

=12 d4 c4

[debug] move action_id=219, action=((4, 3), (4, 2)), 
[debug] current_player=1 (B), 
[debug] board[(4, 3)]=14, board[(4, 2)]=1, 
[debug] board state:
[[14  4  7  6]
 [ 0  6  5 13]
 [10  6  3 12]
 [ 5  6 10  3]
 [13  1  1 14]
 [ 8  9  2 11]
 [14 13 11 14]
 [ 4  2  8 13]], 

=10 

=16 

[debug] move action_id=214, action=((5, 3), (4, 3)), 
[debug] current_player=0 (R), 
[debug] board[(5, 3)]=14, board[(4, 3)]=11, 
[debug] board state:
[[14  4  7  6]
 [ 0  6  5 13]
 [10  6  3 12]
 [ 5  6 10  3]
 [13  1  1 11]
 [ 8  9  2 14]
 [14 13 11 14]
 [ 4  2  8 13]], 

=10 

=16 

=12 a1 a2

[debug] move action_id=271, action=((7, 0), (6, 0)), 
[debug] current_player=1 (B), 
[debug] board[(7, 0)]=14, board[(6, 0)]=4, 
[debug] board state:
[[14  4  7  6]
 [ 0  6  5 13]
 [10  6  3 12]
 [ 5  6 10  3]
 [13  1  1 11]
 [ 8  9  2 14]
 [ 4 13 11 14]
 [14  2  8 13]], 

=10 

=16 

[debug] move action_id=304, action=((7, 3), (6, 3)), 
[debug] current_player=0 (R), 
[debug] board[(7, 3)]=14, board[(6, 3)]=13, 
[debug] board state:
[[14  4  7  6]
 [ 0  6  5 13]
 [10  6  3 12]
 [ 5  6 10  3]
 [13  1  1 11]
 [ 8  9  2 14]
 [ 4 13 11 13]
 [14  2  8 14]], 

=10 

=16 

=12 a2 a1

[debug] move action_id=315, action=((6, 0), (7, 0)), 
[debug] current_player=1 (B), 
[debug] board[(6, 0)]=14, board[(7, 0)]=4, 
[debug] board state:
[[14  4  7  6]
 [ 0  6  5 13]
 [10  6  3 12]
 [ 5  6 10  3]
 [13  1  1 11]
 [ 8  9  2 14]
 [14 13 11 13]
 [ 4  2  8 14]], 

=10 

=16 

[debug] move action_id=340, action=((7, 2), (7, 3)), 
[debug] current_player=0 (R), 
[debug] board[(7, 2)]=14, board[(7, 3)]=8, 
[debug] board state:
[[14  4  7  6]
 [ 0  6  5 13]
 [10  6  3 12]
 [ 5  6 10  3]
 [13  1  1 11]
 [ 8  9  2 14]
 [14 13 11 13]
 [ 4  2 14  8]], 

=10 

=16 

=12 a1 a2

[debug] move action_id=271, action=((7, 0), (6, 0)), 
[debug] current_player=1 (B), 
[debug] board[(7, 0)]=14, board[(6, 0)]=4, 
[debug] board state:
[[14  4  7  6]
 [ 0  6  5 13]
 [10  6  3 12]
 [ 5  6 10  3]
 [13  1  1 11]
 [ 8  9  2 14]
 [ 4 13 11 13]
 [14  2 14  8]], 

=10 

=16 

[debug] move action_id=351, action=((7, 3), (7, 2)), 
[debug] current_player=0 (R), 
[debug] board[(7, 3)]=14, board[(7, 2)]=8, 
[debug] board state:
[[14  4  7  6]
 [ 0  6  5 13]
 [10  6  3 12]
 [ 5  6 10  3]
 [13  1  1 11]
 [ 8  9  2 14]
 [ 4 13 11 13]
 [14  2  8 14]], 

=10 

=16 

=12 a2 a1

[debug] move action_id=315, action=((6, 0), (7, 0)), 
[debug] current_player=1 (B), 
[debug] board[(6, 0)]=14, board[(7, 0)]=4, 
[debug] board state:
[[14  4  7  6]
 [ 0  6  5 13]
 [10  6  3 12]
 [ 5  6 10  3]
 [13  1  1 11]
 [ 8  9  2 14]
 [14 13 11 13]
 [ 4  2  8 14]], 

=10 

=16 

[debug] move action_id=340, action=((7, 2), (7, 3)), 
[debug] current_player=0 (R), 
[debug] board[(7, 2)]=14, board[(7, 3)]=8, 
[debug] board state:
[[14  4  7  6]
 [ 0  6  5 13]
 [10  6  3 12]
 [ 5  6 10  3]
 [13  1  1 11]
 [ 8  9  2 14]
 [14 13 11 13]
 [ 4  2 14  8]], 

=10 

=16 

=12 a1 a2

[debug] move action_id=271, action=((7, 0), (6, 0)), 
[debug] current_player=1 (B), 
[debug] board[(7, 0)]=14, board[(6, 0)]=4, 
[debug] board state:
[[14  4  7  6]
 [ 0  6  5 13]
 [10  6  3 12]
 [ 5  6 10  3]
 [13  1  1 11]
 [ 8  9  2 14]
 [ 4 13 11 13]
 [14  2 14  8]], 

=10 

=16 

[debug] move action_id=351, action=((7, 3), (7, 2)), 
[debug] current_player=0 (R), 
[debug] board[(7, 3)]=14, board[(7, 2)]=8, 
[debug] board state:
[[14  4  7  6]
 [ 0  6  5 13]
 [10  6  3 12]
 [ 5  6 10  3]
 [13  1  1 11]
 [ 8  9  2 14]
 [ 4 13 11 13]
 [14  2  8 14]], 

=10 

=16 

=12 a2 a1

[debug] move action_id=315, action=((6, 0), (7, 0)), 
[debug] current_player=1 (B), 
[debug] board[(6, 0)]=14, board[(7, 0)]=4, 
[debug] board state:
[[14  4  7  6]
 [ 0  6  5 13]
