INITIAL
* 8:35pm Feb 18, 2026
* a0_mu vs a1_lightzero
* 1 2 2 2 2 2 5 1 2 2 2 2 2 5
* X X X X
* X X X X
* X X X X
* X X X X
* X X X X
* X X X X
* X X X X
* X X X X
* first 0
* time 900
* 1. b1(R) b8(c)
* 2. c7(r) a4(R)
* 3. a6(p) b2(n)
* 4. b5(C) d3(c)
* 5. d6(p) d7(P)
* 6. c5(g) d1(m)
* 7. a7(K) a1(n)
* 8. c8(p) d2(p)
* 9. c3(P) d5(P)
* 10. d8(k) a5(M)
* 11. b6(m) a8(N)
* 12. a3(p) c6(N)
* 13. c2(G) a2(P)
* 14. b4(g) c1(P)
* 15. c4(C) b3(r)
* 16. b7(M) d4(G)
* 17. b7-b8 b6-b7
* 18. c6-b6 c5-c6
* 19. a2-a3 a1-a2
* 20. b1-a1 b4-c4
* 21. a1-b1 c4-b4
* 22. d4-c4 a2-a1
* 23. c4-c5 b4-c4
* 24. a4-b4 a1-a2
* 25. b1-a1 c4-d4
* 26. a1-b1 a2-a1
* 27. c5-c4 a1-a2
* 28. b1-a1 a2-a3
* 29. a1-b1 a3-a4
* 30. b1-a1 b3-a3
* 31. a1-b1 b2-b3
* 32. c4-c5 d4-c4
* 33. b1-b2 c4-d4
* 34. c1-b1 d4-c4
* 35. c2-c1 c4-d4
* 36. c1-c2 d4-c4
* 37. c2-c1 c4-d4
* 38. c1-c2 d4-c4
* 39. c2-c1 c4-d4
* 40. c1-c2
* PositionRepetitionDraw,3,4 a0_mu Draw 0.500000,0.500000
* Comment 0 0
0. 1771418146568
1. 1771418146568
2. 1771418147756
3. 1771418148712
4. 1771418149711
5. 1771418150666
6. 1771418151666
7. 1771418152621
8. 1771418153621
9. 1771418154574
10. 1771418155576
11. 1771418156527
12. 1771418157530
13. 1771418158482
14. 1771418159484
15. 1771418160436
16. 1771418161438
17. 1771418162390
18. 1771418163392
19. 1771418164344
20. 1771418165346
21. 1771418166298
22. 1771418167300
23. 1771418168251
24. 1771418169253
25. 1771418170206
26. 1771418171207
27. 1771418172159
28. 1771418173162
29. 1771418174114
30. 1771418175116
31. 1771418176067
32. 1771418177071
33. 1771418178021
34. 1771418179026
35. 1771418179976
36. 1771418180981
37. 1771418181930
38. 1771418182885
39. 1771418183833
40. 1771418184840
41. 1771418185786
42. 1771418186794
43. 1771418187740
44. 1771418188747
45. 1771418189693
46. 1771418190701
47. 1771418191646
48. 1771418192654
49. 1771418193600
50. 1771418194608
51. 1771418195554
52. 1771418196562
53. 1771418197506
54. 1771418198565
55. 1771418199509
56. 1771418200518
57. 1771418201463
58. 1771418202472
59. 1771418203416
60. 1771418204425
61. 1771418205369
62. 1771418206379
63. 1771418207323
64. 1771418208383
65. 1771418209326
66. 1771418210336
67. 1771418211280
68. 1771418212290
69. 1771418213234
70. 1771418214244
71. 1771418215237
72. 1771418216248
73. 1771418217240
74. 1771418218252
75. 1771418219244
76. 1771418220256
77. 1771418221247
78. 1771418222260
79. 1771418223251

# 10 12 46 48 82 84 118 120 154 156 190 192 226 228 262 264 298 300 334 336 370 372 406 408 442 444 478 480 514 516 550 552 586 588 622 624 658 660 694 696 730 732 766 768 802 804 838 840 874 876 910 912 946 948 982 984 1018 1020 1054 1056 1090 1092 1126 1128 1162 1164 1198 1200 1234 1236 1270 1272 1306 1308 1342 1344 1378 1380 1414 1416 #
LightZero MGTP Interface Ready
=1 LightZero_DarkChess

=2 1.0.0

=7 

=15 

=14 

=12 b1 b1

[debug] move action_id=319, action=((7, 1), (7, 1)), 
[debug] current_player=1 (B), 
[debug] board[(7, 1)]=3, board[(7, 1)]=3, 
[debug] board state:
[[15 15 15 15]
 [15 15 15 15]
 [15 15 15 15]
 [15 15 15 15]
 [15 15 15 15]
 [15 15 15 15]
 [15 15 15 15]
 [15  3 15 15]], 

=11 

=16 

[debug] move action_id=11, action=((0, 1), (0, 1)), 
[debug] current_player=0 (R), 
[debug] board[(0, 1)]=12, board[(0, 1)]=12, 
[debug] board state:
[[15 12 15 15]
 [15 15 15 15]
 [15 15 15 15]
 [15 15 15 15]
 [15 15 15 15]
 [15 15 15 15]
 [15 15 15 15]
 [15  3 15 15]], 

=11 

=16 

=12 c7 c7

[debug] move action_id=66, action=((1, 2), (1, 2)), 
[debug] current_player=1 (B), 
[debug] board[(1, 2)]=10, board[(1, 2)]=10, 
[debug] board state:
[[15 12 15 15]
 [15 15 10 15]
 [15 15 15 15]
 [15 15 15 15]
 [15 15 15 15]
 [15 15 15 15]
 [15 15 15 15]
 [15  3 15 15]], 

=11 

=16 

[debug] move action_id=176, action=((4, 0), (4, 0)), 
[debug] current_player=0 (R), 
[debug] board[(4, 0)]=3, board[(4, 0)]=3, 
[debug] board state:
[[15 12 15 15]
 [15 15 10 15]
 [15 15 15 15]
 [15 15 15 15]
 [ 3 15 15 15]
 [15 15 15 15]
 [15 15 15 15]
 [15  3 15 15]], 

=11 

=16 

=12 a6 a6

[debug] move action_id=88, action=((2, 0), (2, 0)), 
[debug] current_player=1 (B), 
[debug] board[(2, 0)]=13, board[(2, 0)]=13, 
[debug] board state:
[[15 12 15 15]
 [15 15 10 15]
 [13 15 15 15]
 [15 15 15 15]
 [ 3 15 15 15]
 [15 15 15 15]
 [15 15 15 15]
 [15  3 15 15]], 

=11 

=16 

[debug] move action_id=275, action=((6, 1), (6, 1)), 
[debug] current_player=0 (R), 
[debug] board[(6, 1)]=11, board[(6, 1)]=11, 
[debug] board state:
[[15 12 15 15]
 [15 15 10 15]
 [13 15 15 15]
 [15 15 15 15]
 [ 3 15 15 15]
 [15 15 15 15]
 [15 11 15 15]
 [15  3 15 15]], 

=11 

=16 

=12 b5 b5

[debug] move action_id=143, action=((3, 1), (3, 1)), 
[debug] current_player=1 (B), 
[debug] board[(3, 1)]=5, board[(3, 1)]=5, 
[debug] board state:
[[15 12 15 15]
 [15 15 10 15]
 [13 15 15 15]
 [15  5 15 15]
 [ 3 15 15 15]
 [15 15 15 15]
 [15 11 15 15]
 [15  3 15 15]], 

=11 

=16 

[debug] move action_id=253, action=((5, 3), (5, 3)), 
[debug] current_player=0 (R), 
[debug] board[(5, 3)]=12, board[(5, 3)]=12, 
[debug] board state:
[[15 12 15 15]
 [15 15 10 15]
 [13 15 15 15]
 [15  5 15 15]
 [ 3 15 15 15]
 [15 15 15 12]
 [15 11 15 15]
 [15  3 15 15]], 

=11 

=16 

=12 d6 d6

[debug] move action_id=121, action=((2, 3), (2, 3)), 
[debug] current_player=1 (B), 
[debug] board[(2, 3)]=13, board[(2, 3)]=13, 
[debug] board state:
[[15 12 15 15]
 [15 15 10 15]
 [13 15 15 13]
 [15  5 15 15]
 [ 3 15 15 15]
 [15 15 15 12]
 [15 11 15 15]
 [15  3 15 15]], 

=11 

=16 

[debug] move action_id=77, action=((1, 3), (1, 3)), 
[debug] current_player=0 (R), 
[debug] board[(1, 3)]=6, board[(1, 3)]=6, 
[debug] board state:
[[15 12 15 15]
 [15 15 10  6]
 [13 15 15 13]
 [15  5 15 15]
 [ 3 15 15 15]
 [15 15 15 12]
 [15 11 15 15]
 [15  3 15 15]], 

=11 

=16 

=12 c5 c5

[debug] move action_id=154, action=((3, 2), (3, 2)), 
[debug] current_player=1 (B), 
[debug] board[(3, 2)]=8, board[(3, 2)]=8, 
[debug] board state:
[[15 12 15 15]
 [15 15 10  6]
 [13 15 15 13]
 [15  5  8 15]
 [ 3 15 15 15]
 [15 15 15 12]
 [15 11 15 15]
 [15  3 15 15]], 

=11 

=16 

[debug] move action_id=341, action=((7, 3), (7, 3)), 
[debug] current_player=0 (R), 
[debug] board[(7, 3)]=9, board[(7, 3)]=9, 
[debug] board state:
[[15 12 15 15]
 [15 15 10  6]
 [13 15 15 13]
 [15  5  8 15]
 [ 3 15 15 15]
 [15 15 15 12]
 [15 11 15 15]
 [15  3 15  9]], 

=11 

=16 

=12 a7 a7

[debug] move action_id=44, action=((1, 0), (1, 0)), 
[debug] current_player=1 (B), 
[debug] board[(1, 0)]=0, board[(1, 0)]=0, 
[debug] board state:
[[15 12 15 15]
 [ 0 15 10  6]
 [13 15 15 13]
 [15  5  8 15]
 [ 3 15 15 15]
 [15 15 15 12]
 [15 11 15 15]
 [15  3 15  9]], 

=11 

=16 

[debug] move action_id=308, action=((7, 0), (7, 0)), 
[debug] current_player=0 (R), 
[debug] board[(7, 0)]=11, board[(7, 0)]=11, 
[debug] board state:
[[15 12 15 15]
 [ 0 15 10  6]
 [13 15 15 13]
 [15  5  8 15]
 [ 3 15 15 15]
 [15 15 15 12]
 [15 11 15 15]
 [11  3 15  9]], 

=11 

=16 

=12 c8 c8

[debug] move action_id=22, action=((0, 2), (0, 2)), 
[debug] current_player=1 (B), 
[debug] board[(0, 2)]=13, board[(0, 2)]=13, 
[debug] board state:
[[15 12 13 15]
 [ 0 15 10  6]
 [13 15 15 13]
 [15  5  8 15]
 [ 3 15 15 15]
 [15 15 15 12]
 [15 11 15 15]
 [11  3 15  9]], 

=11 

=16 

[debug] move action_id=297, action=((6, 3), (6, 3)), 
[debug] current_player=0 (R), 
[debug] board[(6, 3)]=13, board[(6, 3)]=13, 
[debug] board state:
[[15 12 13 15]
 [ 0 15 10  6]
 [13 15 15 13]
 [15  5  8 15]
 [ 3 15 15 15]
 [15 15 15 12]
 [15 11 15 13]
 [11  3 15  9]], 

=11 

=16 

=12 c3 c3

[debug] move action_id=242, action=((5, 2), (5, 2)), 
[debug] current_player=1 (B), 
[debug] board[(5, 2)]=6, board[(5, 2)]=6, 
[debug] board state:
[[15 12 13 15]
 [ 0 15 10  6]
 [13 15 15 13]
 [15  5  8 15]
 [ 3 15 15 15]
 [15 15  6 12]
 [15 11 15 13]
 [11  3 15  9]], 

=11 

=16 

[debug] move action_id=165, action=((3, 3), (3, 3)), 
[debug] current_player=0 (R), 
[debug] board[(3, 3)]=6, board[(3, 3)]=6, 
[debug] board state:
[[15 12 13 15]
 [ 0 15 10  6]
 [13 15 15 13]
 [15  5  8  6]
 [ 3 15 15 15]
 [15 15  6 12]
 [15 11 15 13]
 [11  3 15  9]], 

=11 

=16 

=12 d8 d8

[debug] move action_id=33, action=((0, 3), (0, 3)), 
[debug] current_player=1 (B), 
[debug] board[(0, 3)]=7, board[(0, 3)]=7, 
[debug] board state:
[[15 12 13  7]
 [ 0 15 10  6]
 [13 15 15 13]
 [15  5  8  6]
 [ 3 15 15 15]
 [15 15  6 12]
 [15 11 15 13]
 [11  3 15  9]], 

=11 

=16 

[debug] move action_id=132, action=((3, 0), (3, 0)), 
[debug] current_player=0 (R), 
[debug] board[(3, 0)]=2, board[(3, 0)]=2, 
[debug] board state:
[[15 12 13  7]
 [ 0 15 10  6]
 [13 15 15 13]
 [ 2  5  8  6]
 [ 3 15 15 15]
 [15 15  6 12]
 [15 11 15 13]
 [11  3 15  9]], 

=11 

=16 

=12 b6 b6

[debug] move action_id=99, action=((2, 1), (2, 1)), 
[debug] current_player=1 (B), 
[debug] board[(2, 1)]=9, board[(2, 1)]=9, 
[debug] board state:
[[15 12 13  7]
 [ 0 15 10  6]
 [13  9 15 13]
 [ 2  5  8  6]
 [ 3 15 15 15]
 [15 15  6 12]
 [15 11 15 13]
 [11  3 15  9]], 

=11 

=16 

[debug] move action_id=0, action=((0, 0), (0, 0)), 
[debug] current_player=0 (R), 
[debug] board[(0, 0)]=4, board[(0, 0)]=4, 
[debug] board state:
[[ 4 12 13  7]
 [ 0 15 10  6]
 [13  9 15 13]
 [ 2  5  8  6]
 [ 3 15 15 15]
 [15 15  6 12]
 [15 11 15 13]
 [11  3 15  9]], 

=11 

=16 

=12 a3 a3

[debug] move action_id=220, action=((5, 0), (5, 0)), 
[debug] current_player=1 (B), 
[debug] board[(5, 0)]=13, board[(5, 0)]=13, 
[debug] board state:
[[ 4 12 13  7]
 [ 0 15 10  6]
 [13  9 15 13]
 [ 2  5  8  6]
 [ 3 15 15 15]
 [13 15  6 12]
 [15 11 15 13]
 [11  3 15  9]], 

=11 

=16 

[debug] move action_id=110, action=((2, 2), (2, 2)), 
[debug] current_player=0 (R), 
[debug] board[(2, 2)]=4, board[(2, 2)]=4, 
[debug] board state:
[[ 4 12 13  7]
 [ 0 15 10  6]
 [13  9  4 13]
 [ 2  5  8  6]
 [ 3 15 15 15]
 [13 15  6 12]
 [15 11 15 13]
 [11  3 15  9]], 

=11 

=16 

=12 c2 c2

[debug] move action_id=286, action=((6, 2), (6, 2)), 
[debug] current_player=1 (B), 
[debug] board[(6, 2)]=1, board[(6, 2)]=1, 
[debug] board state:
[[ 4 12 13  7]
 [ 0 15 10  6]
 [13  9  4 13]
 [ 2  5  8  6]
 [ 3 15 15 15]
 [13 15  6 12]
 [15 11  1 13]
 [11  3 15  9]], 

=11 

=16 

[debug] move action_id=264, action=((6, 0), (6, 0)), 
[debug] current_player=0 (R), 
[debug] board[(6, 0)]=6, board[(6, 0)]=6, 
[debug] board state:
[[ 4 12 13  7]
 [ 0 15 10  6]
 [13  9  4 13]
 [ 2  5  8  6]
 [ 3 15 15 15]
 [13 15  6 12]
 [ 6 11  1 13]
 [11  3 15  9]], 

=11 

=16 

=12 b4 b4

[debug] move action_id=187, action=((4, 1), (4, 1)), 
[debug] current_player=1 (B), 
[debug] board[(4, 1)]=8, board[(4, 1)]=8, 
[debug] board state:
[[ 4 12 13  7]
 [ 0 15 10  6]
 [13  9  4 13]
 [ 2  5  8  6]
 [ 3  8 15 15]
 [13 15  6 12]
 [ 6 11  1 13]
 [11  3 15  9]], 

=11 

=16 

[debug] move action_id=330, action=((7, 2), (7, 2)), 
[debug] current_player=0 (R), 
[debug] board[(7, 2)]=6, board[(7, 2)]=6, 
[debug] board state:
[[ 4 12 13  7]
 [ 0 15 10  6]
 [13  9  4 13]
 [ 2  5  8  6]
 [ 3  8 15 15]
 [13 15  6 12]
 [ 6 11  1 13]
 [11  3  6  9]], 

=11 

=16 

=12 c4 c4

[debug] move action_id=198, action=((4, 2), (4, 2)), 
[debug] current_player=1 (B), 
[debug] board[(4, 2)]=5, board[(4, 2)]=5, 
[debug] board state:
[[ 4 12 13  7]
 [ 0 15 10  6]
 [13  9  4 13]
 [ 2  5  8  6]
 [ 3  8  5 15]
 [13 15  6 12]
 [ 6 11  1 13]
 [11  3  6  9]], 

=11 

=16 

[debug] move action_id=231, action=((5, 1), (5, 1)), 
[debug] current_player=0 (R), 
[debug] board[(5, 1)]=10, board[(5, 1)]=10, 
[debug] board state:
[[ 4 12 13  7]
 [ 0 15 10  6]
 [13  9  4 13]
 [ 2  5  8  6]
 [ 3  8  5 15]
 [13 10  6 12]
 [ 6 11  1 13]
 [11  3  6  9]], 

=11 

=16 

=12 b7 b7

[debug] move action_id=55, action=((1, 1), (1, 1)), 
[debug] current_player=1 (B), 
[debug] board[(1, 1)]=2, board[(1, 1)]=2, 
[debug] board state:
[[ 4 12 13  7]
 [ 0  2 10  6]
 [13  9  4 13]
 [ 2  5  8  6]
 [ 3  8  5 15]
 [13 10  6 12]
 [ 6 11  1 13]
 [11  3  6  9]], 

=11 

=16 

[debug] move action_id=209, action=((4, 3), (4, 3)), 
[debug] current_player=0 (R), 
[debug] board[(4, 3)]=1, board[(4, 3)]=1, 
[debug] board state:
[[ 4 12 13  7]
 [ 0  2 10  6]
 [13  9  4 13]
 [ 2  5  8  6]
 [ 3  8  5  1]
 [13 10  6 12]
 [ 6 11  1 13]
 [11  3  6  9]], 

=11 

=16 

=12 b7 b8

[debug] move action_id=12, action=((1, 1), (0, 1)), 
[debug] current_player=1 (B), 
[debug] board[(1, 1)]=14, board[(0, 1)]=2, 
[debug] board state:
[[ 4  2 13  7]
 [ 0 14 10  6]
 [13  9  4 13]
 [ 2  5  8  6]
 [ 3  8  5  1]
 [13 10  6 12]
 [ 6 11  1 13]
 [11  3  6  9]], 

=10 

=16 

[debug] move action_id=57, action=((2, 1), (1, 1)), 
[debug] current_player=0 (R), 
[debug] board[(2, 1)]=14, board[(1, 1)]=9, 
[debug] board state:
[[ 4  2 13  7]
 [ 0  9 10  6]
 [13 14  4 13]
 [ 2  5  8  6]
 [ 3  8  5  1]
 [13 10  6 12]
 [ 6 11  1 13]
 [11  3  6  9]], 

=10 

=16 

=12 c6 b6

[debug] move action_id=119, action=((2, 2), (2, 1)), 
[debug] current_player=1 (B), 
[debug] board[(2, 2)]=14, board[(2, 1)]=4, 
[debug] board state:
[[ 4  2 13  7]
 [ 0  9 10  6]
 [13  4 14 13]
 [ 2  5  8  6]
 [ 3  8  5  1]
 [13 10  6 12]
 [ 6 11  1 13]
 [11  3  6  9]], 

=10 

=16 

[debug] move action_id=113, action=((3, 2), (2, 2)), 
[debug] current_player=0 (R), 
[debug] board[(3, 2)]=14, board[(2, 2)]=8, 
[debug] board state:
[[ 4  2 13  7]
 [ 0  9 10  6]
 [13  4  8 13]
 [ 2  5 14  6]
 [ 3  8  5  1]
 [13 10  6 12]
 [ 6 11  1 13]
 [11  3  6  9]], 

=10 

=16 

=12 a2 a3

[debug] move action_id=226, action=((6, 0), (5, 0)), 
[debug] current_player=1 (B), 
[debug] board[(6, 0)]=14, board[(5, 0)]=6, 
[debug] board state:
[[ 4  2 13  7]
 [ 0  9 10  6]
 [13  4  8 13]
 [ 2  5 14  6]
 [ 3  8  5  1]
 [ 6 10  6 12]
 [14 11  1 13]
 [11  3  6  9]], 

=10 

=16 

[debug] move action_id=271, action=((7, 0), (6, 0)), 
[debug] current_player=0 (R), 
[debug] board[(7, 0)]=14, board[(6, 0)]=11, 
[debug] board state:
[[ 4  2 13  7]
 [ 0  9 10  6]
 [13  4  8 13]
 [ 2  5 14  6]
 [ 3  8  5  1]
 [ 6 10  6 12]
 [11 11  1 13]
 [14  3  6  9]], 

=10 

=16 

=12 b1 a1

[debug] move action_id=327, action=((7, 1), (7, 0)), 
[debug] current_player=1 (B), 
[debug] board[(7, 1)]=14, board[(7, 0)]=3, 
[debug] board state:
[[ 4  2 13  7]
 [ 0  9 10  6]
 [13  4  8 13]
 [ 2  5 14  6]
 [ 3  8  5  1]
 [ 6 10  6 12]
 [11 11  1 13]
 [ 3 14  6  9]], 

=10 

=16 

[debug] move action_id=196, action=((4, 1), (4, 2)), 
[debug] current_player=0 (R), 
[debug] board[(4, 1)]=14, board[(4, 2)]=8, 
[debug] board state:
[[ 4  2 13  7]
 [ 0  9 10  6]
 [13  4  8 13]
 [ 2  5 14  6]
 [ 3 14  8  1]
 [ 6 10  6 12]
 [11 11  1 13]
 [ 3 14  6  9]], 

=10 

=16 

=12 a1 b1

[debug] move action_id=316, action=((7, 0), (7, 1)), 
[debug] current_player=1 (B), 
[debug] board[(7, 0)]=14, board[(7, 1)]=3, 
[debug] board state:
[[ 4  2 13  7]
 [ 0  9 10  6]
 [13  4  8 13]
 [ 2  5 14  6]
 [ 3 14  8  1]
 [ 6 10  6 12]
 [11 11  1 13]
 [14  3  6  9]], 

=10 

=16 

[debug] move action_id=207, action=((4, 2), (4, 1)), 
[debug] current_player=0 (R), 
[debug] board[(4, 2)]=14, board[(4, 1)]=8, 
[debug] board state:
[[ 4  2 13  7]
 [ 0  9 10  6]
 [13  4  8 13]
 [ 2  5 14  6]
 [ 3  8 14  1]
 [ 6 10  6 12]
 [11 11  1 13]
 [14  3  6  9]], 

=10 

=16 

=12 d4 c4

[debug] move action_id=219, action=((4, 3), (4, 2)), 
[debug] current_player=1 (B), 
[debug] board[(4, 3)]=14, board[(4, 2)]=1, 
[debug] board state:
[[ 4  2 13  7]
 [ 0  9 10  6]
 [13  4  8 13]
 [ 2  5 14  6]
 [ 3  8  1 14]
 [ 6 10  6 12]
 [11 11  1 13]
 [14  3  6  9]], 

=10 

=16 

[debug] move action_id=315, action=((6, 0), (7, 0)), 
[debug] current_player=0 (R), 
[debug] board[(6, 0)]=14, board[(7, 0)]=11, 
[debug] board state:
[[ 4  2 13  7]
 [ 0  9 10  6]
 [13  4  8 13]
 [ 2  5 14  6]
 [ 3  8  1 14]
 [ 6 10  6 12]
 [14 11  1 13]
 [11  3  6  9]], 

=10 

=16 

=12 c4 c5

[debug] move action_id=158, action=((4, 2), (3, 2)), 
[debug] current_player=1 (B), 
[debug] board[(4, 2)]=14, board[(3, 2)]=1, 
[debug] board state:
[[ 4  2 13  7]
 [ 0  9 10  6]
 [13  4  8 13]
 [ 2  5  1  6]
 [ 3  8 14 14]
 [ 6 10  6 12]
 [14 11  1 13]
 [11  3  6  9]], 

=10 

=16 

[debug] move action_id=196, action=((4, 1), (4, 2)), 
[debug] current_player=0 (R), 
[debug] board[(4, 1)]=14, board[(4, 2)]=8, 
[debug] board state:
[[ 4  2 13  7]
 [ 0  9 10  6]
 [13  4  8 13]
 [ 2  5  1  6]
 [ 3 14  8 14]
 [ 6 10  6 12]
 [14 11  1 13]
 [11  3  6  9]], 

=10 

=16 

=12 a4 b4

[debug] move action_id=184, action=((4, 0), (4, 1)), 
[debug] current_player=1 (B), 
[debug] board[(4, 0)]=14, board[(4, 1)]=3, 
[debug] board state:
[[ 4  2 13  7]
 [ 0  9 10  6]
 [13  4  8 13]
 [ 2  5  1  6]
 [14  3  8 14]
 [ 6 10  6 12]
 [14 11  1 13]
 [11  3  6  9]], 

=10 

=16 

[debug] move action_id=271, action=((7, 0), (6, 0)), 
[debug] current_player=0 (R), 
[debug] board[(7, 0)]=14, board[(6, 0)]=11, 
[debug] board state:
[[ 4  2 13  7]
 [ 0  9 10  6]
 [13  4  8 13]
 [ 2  5  1  6]
 [14  3  8 14]
 [ 6 10  6 12]
 [11 11  1 13]
 [14  3  6  9]], 

=10 

=16 

=12 b1 a1

[debug] move action_id=327, action=((7, 1), (7, 0)), 
[debug] current_player=1 (B), 
[debug] board[(7, 1)]=14, board[(7, 0)]=3, 
[debug] board state:
[[ 4  2 13  7]
 [ 0  9 10  6]
 [13  4  8 13]
 [ 2  5  1  6]
 [14  3  8 14]
 [ 6 10  6 12]
 [11 11  1 13]
 [ 3 14  6  9]], 

=10 

=16 

[debug] move action_id=208, action=((4, 2), (4, 3)), 
[debug] current_player=0 (R), 
[debug] board[(4, 2)]=14, board[(4, 3)]=8, 
[debug] board state:
[[ 4  2 13  7]
 [ 0  9 10  6]
 [13  4  8 13]
 [ 2  5  1  6]
 [14  3 14  8]
 [ 6 10  6 12]
 [11 11  1 13]
 [ 3 14  6  9]], 

=10 

=16 

=12 a1 b1

[debug] move action_id=316, action=((7, 0), (7, 1)), 
[debug] current_player=1 (B), 
[debug] board[(7, 0)]=14, board[(7, 1)]=3, 
[debug] board state:
[[ 4  2 13  7]
 [ 0  9 10  6]
 [13  4  8 13]
 [ 2  5  1  6]
 [14  3 14  8]
 [ 6 10  6 12]
 [11 11  1 13]
 [14  3  6  9]], 

=10 

=16 

[debug] move action_id=315, action=((6, 0), (7, 0)), 
[debug] current_player=0 (R), 
[debug] board[(6, 0)]=14, board[(7, 0)]=11, 
[debug] board state:
[[ 4  2 13  7]
 [ 0  9 10  6]
 [13  4  8 13]
 [ 2  5  1  6]
 [14  3 14  8]
 [ 6 10  6 12]
 [14 11  1 13]
 [11  3  6  9]], 

=10 

=16 

=12 c5 c4

[debug] move action_id=202, action=((3, 2), (4, 2)), 
[debug] current_player=1 (B), 
[debug] board[(3, 2)]=14, board[(4, 2)]=1, 
[debug] board state:
[[ 4  2 13  7]
 [ 0  9 10  6]
 [13  4  8 13]
 [ 2  5 14  6]
 [14  3  1  8]
 [ 6 10  6 12]
 [14 11  1 13]
 [11  3  6  9]], 

=10 

=16 

[debug] move action_id=271, action=((7, 0), (6, 0)), 
[debug] current_player=0 (R), 
[debug] board[(7, 0)]=14, board[(6, 0)]=11, 
[debug] board state:
[[ 4  2 13  7]
 [ 0  9 10  6]
 [13  4  8 13]
 [ 2  5 14  6]
 [14  3  1  8]
 [ 6 10  6 12]
 [11 11  1 13]
 [14  3  6  9]], 

=10 

=16 

=12 b1 a1

[debug] move action_id=327, action=((7, 1), (7, 0)), 
[debug] current_player=1 (B), 
[debug] board[(7, 1)]=14, board[(7, 0)]=3, 
[debug] board state:
[[ 4  2 13  7]
 [ 0  9 10  6]
 [13  4  8 13]
 [ 2  5 14  6]
 [14  3  1  8]
 [ 6 10  6 12]
 [11 11  1 13]
 [ 3 14  6  9]], 

=10 

=16 

[debug] move action_id=226, action=((6, 0), (5, 0)), 
[debug] current_player=0 (R), 
[debug] board[(6, 0)]=14, board[(5, 0)]=11, 
[debug] board state:
[[ 4  2 13  7]
 [ 0  9 10  6]
 [13  4  8 13]
 [ 2  5 14  6]
 [14  3  1  8]
 [11 10  6 12]
 [14 11  1 13]
 [ 3 14  6  9]], 

=10 

=16 

=12 a1 b1

[debug] move action_id=316, action=((7, 0), (7, 1)), 
[debug] current_player=1 (B), 
[debug] board[(7, 0)]=14, board[(7, 1)]=3, 
[debug] board state:
[[ 4  2 13  7]
 [ 0  9 10  6]
 [13  4  8 13]
 [ 2  5 14  6]
 [14  3  1  8]
 [11 10  6 12]
 [14 11  1 13]
 [14  3  6  9]], 

=10 

=16 

[debug] move action_id=181, action=((5, 0), (4, 0)), 
[debug] current_player=0 (R), 
[debug] board[(5, 0)]=14, board[(4, 0)]=11, 
[debug] board state:
[[ 4  2 13  7]
 [ 0  9 10  6]
 [13  4  8 13]
 [ 2  5 14  6]
 [11  3  1  8]
 [14 10  6 12]
 [14 11  1 13]
 [14  3  6  9]], 

=10 

=16 

=12 b1 a1

[debug] move action_id=327, action=((7, 1), (7, 0)), 
[debug] current_player=1 (B), 
[debug] board[(7, 1)]=14, board[(7, 0)]=3, 
[debug] board state:
[[ 4  2 13  7]
 [ 0  9 10  6]
 [13  4  8 13]
 [ 2  5 14  6]
 [11  3  1  8]
 [14 10  6 12]
 [14 11  1 13]
 [ 3 14  6  9]], 

=10 

