INITIAL
* 11:8pm Nov 14, 2024
* a0 vs az_new
* 1 2 2 2 2 2 5 1 2 2 2 2 2 5
* X X X X
* X X X X
* X X X X
* X X X X
* X X X X
* X X X X
* X X X X
* X X X X
* first 0
* time 900
* 1. c2(K) c3(G)
* 2. d3(g) d3-c3
* 3. c2-c3 b3(G)
* 4. b2(r) a2(P)
* 5. b3-b2 c4(M)
* 6. b7(c) b4(P)
* 7. b5(p) b5-b4
* 8. c4-b4 b1(R)
* 9. b6(R) a1(P)
* 10. b6-b7 c1(k)
* 11. d1(p) c1-b1
* 12. d2(n) b1-b2
* 13. a2-b2 a4(P)
* 14. a5(g) a5-a4
* 15. a3(M) a4-a3
* 16. d4(p) d5(N)
* 17. d5-d4 b8(p)
* 18. b7-b8 a8(C)
* 19. a1-b1 c5(C)
* 20. b2-b3 a3-b3
* 21. c3-b3 c6(N)
* 22. a6(m) a7(P)
* 23. d6(p) a6-a7
* 24. c6-d6 a7-a8
* 25. c7(r) a8-b8
* 26. d7(n) d7-d6
* 27. c8(c) d8(m)
* 28. c5-d5 d6-d5
* 29. d4-d5 d1-c1
* 30. b1-c1 d2-c2
* 31. b4-a4 c2-c1
* 32. a4-b4 c1-c2
* 33. d5-c5 c2-c3
* 34. b3-c3 c7-c6
* 35. b4-c4 c6-c5
* 36. c4-c5 c8-c7
* 37. c5-c4 c7-c6
* 38. c4-c5 b8-c8
* 39. c5-c6 c8-c7
* 40. c6-c7 d8-c8
* 41. c7-c8
* NoMove a0 Wins 1.000000,0.000000
* Comment 0 0
0. 1731596885086
1. 1731596885086
2. 1731596886471
3. 1731596887232
4. 1731596888176
5. 1731596888937
6. 1731596890031
7. 1731596891695
8. 1731596893489
9. 1731596894302
10. 1731596896294
11. 1731596897761
12. 1731596899099
13. 1731596899816
14. 1731596901153
15. 1731596902173
16. 1731596903508
17. 1731596904329
18. 1731596906063
19. 1731596906986
20. 1731596908368
21. 1731596909092
22. 1731596910172
23. 1731596911398
24. 1731596912877
25. 1731596913805
26. 1731596915933
27. 1731596917715
28. 1731596919139
29. 1731596920924
30. 1731596922296
31. 1731596924082
32. 1731596925802
33. 1731596926739
34. 1731596928558
35. 1731596929292
36. 1731596931163
37. 1731596931948
38. 1731596933417
39. 1731596934953
40. 1731596936823
41. 1731596938360
42. 1731596939479
43. 1731596941316
44. 1731596943035
45. 1731596944722
46. 1731596946491
47. 1731596948026
48. 1731596949948
49. 1731596951830
50. 1731596952603
51. 1731596954333
52. 1731596956010
53. 1731596957337
54. 1731596958865
55. 1731596959789
56. 1731596961270
57. 1731596962443
58. 1731596963173
59. 1731596964345
60. 1731596965980
61. 1731596967802
62. 1731596969086
63. 1731596970257
64. 1731596972041
65. 1731596973614
66. 1731596975346
67. 1731596976919
68. 1731596978603
69. 1731596980123
70. 1731596980757
71. 1731596982225
72. 1731596982861
73. 1731596983977
74. 1731596985165
75. 1731596986231
76. 1731596987771
77. 1731596988736
78. 1731596990276
79. 1731596991189
80. 1731596992731
81. 1731596994344
