INITIAL
* 11:15pm Nov 14, 2024
* a0 vs az_new
* 1 2 2 2 2 2 5 1 2 2 2 2 2 5
* X X X X
* X X X X
* X X X X
* X X X X
* X X X X
* X X X X
* X X X X
* X X X X
* first 1
* time 900
* 1. c2(c) b6(r)
* 2. b5(P) c5(C)
* 3. b6-b5 b4(n)
* 4. b5-c5 c6(R)
* 5. c5-c6 b3(G)
* 6. b2(p) b3-b4
* 7. b1(r) c4(g)
* 8. c4-b4 c7(M)
* 9. b7(P) c7-c6
* 10. b8(n) c1(M)
* 11. b8-b7 c1-c2
* 12. a7(p) c3(P)
* 13. a6(p) c2-b2
* 14. d7(m) d6(N)
* 15. d7-d6 c6-d6
* 16. a4(k) b2-b1
* 17. a2(G) a3(C)
* 18. a4-a3 d5(p)
* 19. d4(m) d6-d5
* 20. d4-d5 d3(R)
* 21. a1(p) b1-a1
* 22. a3-a2 a5(N)
* 23. a2-a1 a5-a6
* 24. b4-c4 a6-a7
* 25. c4-c3 a7-b7
* 26. c3-d3 d2(K)
* 27. d1(P) d2-d3
* 28. d5-d4 d3-d4
* 29. c8(P) d8(g)
* 30. d8-c8 a8(c)
* 31. c8-c7 d1-c1
* 32. c7-b7 c1-b1
* 33. b7-c7 b1-a1
* 34. c7-c6 d4-c4
* 35. c6-c5 c4-c5
* 36. a8-b8 a1-b1
* 37. b8-b7 c5-b5
* 38. b7-b6 b5-b6
* NoMove az_new Wins 0.000000,1.000000
* Comment 0 0
0. 1731597342904
1. 1731597342904
2. 1731597344839
3. 1731597345952
4. 1731597347294
5. 1731597348508
6. 1731597350298
7. 1731597351366
8. 1731597353103
9. 1731597354374
10. 1731597356108
11. 1731597357583
12. 1731597358911
13. 1731597359938
14. 1731597362015
15. 1731597363195
16. 1731597365018
17. 1731597365850
18. 1731597367321
19. 1731597368155
20. 1731597370324
21. 1731597371462
22. 1731597372928
23. 1731597374067
24. 1731597376085
25. 1731597376973
26. 1731597378639
27. 1731597380180
28. 1731597381643
29. 1731597383185
30. 1731597384597
31. 1731597386091
32. 1731597388153
33. 1731597389700
34. 1731597391360
35. 1731597392206
36. 1731597394013
37. 1731597395615
38. 1731597397418
39. 1731597398873
40. 1731597400823
41. 1731597402081
42. 1731597403628
43. 1731597405440
44. 1731597406985
45. 1731597407696
46. 1731597409590
47. 1731597410303
48. 1731597412146
49. 1731597413109
50. 1731597414951
51. 1731597415916
52. 1731597417758
53. 1731597418771
54. 1731597420561
55. 1731597422075
56. 1731597423815
57. 1731597425532
58. 1731597427271
59. 1731597428587
60. 1731597429826
61. 1731597430740
62. 1731597432079
63. 1731597433693
64. 1731597435383
65. 1731597436497
66. 1731597437636
67. 1731597438800
68. 1731597440141
69. 1731597441253
70. 1731597442544
71. 1731597443656
72. 1731597445047
73. 1731597446159
74. 1731597447401
75. 1731597449015
76. 1731597450655
