INITIAL
* 10:40pm Nov 14, 2024
* a0 vs az_new
* 1 2 2 2 2 2 5 1 2 2 2 2 2 5
* X X X X
* X X X X
* X X X X
* X X X X
* X X X X
* X X X X
* X X X X
* X X X X
* first 1
* time 900
* 1. c2(p) c3(G)
* 2. b3(N) c3-c2
* 3. b2(P) c1(P)
* 4. b4(P) b1(G)
* 5. a5(C) b5(M)
* 6. a3(r) d1(k)
* 7. a3-b3 c1-d1
* 8. b3-b4 b5-b4
* 9. a4(p) b4-a4
* 10. d2(c) c2-d2
* 11. d3(P) d4(K)
* 12. a2(R) a1(n)
* 13. a6(m) b1-a1
* 14. a6-a5 a4-a5
* 15. d5(p) d8(g)
* 16. d5-d4 d3-d4
* 17. c4(g) b8(r)
* 18. c4-d4 b7(C)
* 19. b8-b7 b6(R)
* 20. b7-b6 c6(P)
* 21. b6-c6 c5(N)
* 22. c6-c5 d7(p)
* 23. c7(M) c7-d7
* 24. d8-d7 d6(p)
* 25. a8(n) a7(m)
* 26. a7-a6 a5-a6
* 27. a8-a7 a6-a7
* 28. d4-d3 d2-d3
* 29. c8(c) b2-b1
* 30. c8-c7 d3-d4
* 31. c5-d5 d4-d5
* 32. c7-c6 d5-d6
* 33. d7-d6 a7-b7
* 34. c6-c7 b7-c7
* 35. d6-d7 a2-a3
* 36. d7-c7 a3-b3
* 37. c7-b7 b3-b4
* 38. b7-b6 b4-b5
* 39. b6-b5 b1-b2
* 40. b5-b4 b2-b3
* 41. b4-b3 a1-b1
* 42. b3-b2 b1-b2
* NoMove az_new Wins 0.000000,1.000000
* Comment 0 0
0. 1731595228475
1. 1731595228475
2. 1731595229962
3. 1731595230972
4. 1731595231917
5. 1731595233228
6. 1731595235525
7. 1731595236537
8. 1731595237981
9. 1731595239344
10. 1731595241285
11. 1731595242703
12. 1731595244940
13. 1731595246563
14. 1731595248597
15. 1731595249470
16. 1731595251551
17. 1731595252428
18. 1731595254505
19. 1731595255837
20. 1731595257859
21. 1731595259644
22. 1731595261413
23. 1731595262400
24. 1731595263816
25. 1731595265506
26. 1731595266672
27. 1731595267761
28. 1731595269728
29. 1731595270918
30. 1731595272685
31. 1731595273523
32. 1731595275340
33. 1731595277027
34. 1731595278797
35. 1731595279780
36. 1731595281202
37. 1731595282935
38. 1731595284506
39. 1731595285992
40. 1731595287312
41. 1731595288948
42. 1731595290768
43. 1731595292555
44. 1731595294372
45. 1731595295159
46. 1731595296926
47. 1731595297713
48. 1731595299480
49. 1731595300918
50. 1731595301583
51. 1731595303123
52. 1731595304437
53. 1731595305979
54. 1731595307240
55. 1731595308733
56. 1731595310044
57. 1731595311739
58. 1731595313399
59. 1731595314144
60. 1731595315655
61. 1731595316399
62. 1731595318059
63. 1731595318704
64. 1731595320363
65. 1731595320959
66. 1731595321967
67. 1731595322712
68. 1731595323670
69. 1731595324265
70. 1731595325773
71. 1731595327121
72. 1731595328627
73. 1731595330025
74. 1731595331480
75. 1731595332879
76. 1731595334333
77. 1731595335783
78. 1731595337237
79. 1731595338686
80. 1731595340090
81. 1731595341540
82. 1731595342943
83. 1731595344544
84. 1731595346147
