INITIAL
* 10:34pm Nov 14, 2024
* az_new vs a0
* 1 2 2 2 2 2 5 1 2 2 2 2 2 5
* X X X X
* X X X X
* X X X X
* X X X X
* X X X X
* X X X X
* X X X X
* X X X X
* first 0
* time 900
* 1. b5(M) a5(C)
* 2. b4(P) b3(g)
* 3. b2(c) b3-b4
* 4. c4(R) b4-b5
* 5. c5(g) c5-c4
* 6. c3(C) c4-c3
* 7. c2(N) b5-a5
* 8. c2-b2 d3(c)
* 9. d4(G) c6(R)
* 10. d4-d3 c3-d3
* 11. b6(N) c7(p)
* 12. c6-c7 c8(r)
* 13. c7-c8 b8(P)
* 14. b7(G) a8(p)
* 15. b8-a8 a6(r)
* 16. a7(P) a6-b6
* 17. b7-b6 d6(p)
* 18. d5(P) d6-d5
* 19. a4(K) d8(M)
* 20. a4-a5 d7(P)
* 21. a2(n) a2-b2
* 22. b1(p) d5-c5
* 23. a3(p) c5-c6
* 24. b6-c6 a3-a4
* 25. d2(n) a4-a5
* 26. a1(m) d1(k)
* 27. c1(m) a5-a6
* 28. a7-a6 d3-d4
* 29. c8-c7 d4-d5
* 30. c6-c5 d5-c5
* 31. c7-c6 c5-c6
* 32. d7-c7 c6-c7
* 33. d8-c8 c7-c8
* 34. a8-b8 c8-b8
* 35. a6-b6 b2-a2
* 36. b6-b7 b8-b7
* NoMove a0 Wins 0.000000,1.000000
* Comment 0 0
0. 1731594892934
1. 1731594892934
2. 1731594893770
3. 1731594895030
4. 1731594895776
5. 1731594897787
6. 1731594898584
7. 1731594899991
8. 1731594900638
9. 1731594902797
10. 1731594903544
11. 1731594904351
12. 1731594905048
13. 1731594905905
14. 1731594906702
15. 1731594907810
16. 1731594908455
17. 1731594909414
18. 1731594910862
19. 1731594911719
20. 1731594912616
21. 1731594913875
22. 1731594915221
23. 1731594916430
24. 1731594917827
25. 1731594919085
26. 1731594919783
27. 1731594921388
28. 1731594922940
29. 1731594924142
30. 1731594924894
31. 1731594926446
32. 1731594927198
33. 1731594928399
34. 1731594929801
35. 1731594930853
36. 1731594932455
37. 1731594934008
38. 1731594934959
39. 1731594936012
40. 1731594936762
41. 1731594938066
42. 1731594939015
43. 1731594941021
44. 1731594942270
45. 1731594944025
46. 1731594945526
47. 1731594947432
48. 1731594948932
49. 1731594949985
50. 1731594951337
51. 1731594953040
52. 1731594954491
53. 1731594955395
54. 1731594957145
55. 1731594958951
56. 1731594960552
57. 1731594962305
58. 1731594963258
59. 1731594964959
60. 1731594966662
61. 1731594968465
62. 1731594969366
63. 1731594971119
64. 1731594972071
65. 1731594973824
66. 1731594975527
67. 1731594977229
68. 1731594978882
69. 1731594979783
70. 1731594981436
71. 1731594983088
72. 1731594984692
