INITIAL
* 6:52pm Feb 18, 2026
* a0_mu vs a1_lightzero
* 1 2 2 2 2 2 5 1 2 2 2 2 2 5
* X X X X
* X X X X
* X X X X
* X X X X
* X X X X
* X X X X
* X X X X
* X X X X
* first 0
* time 900
* 1. b1(M) b8(N)
* 2. b5(P) a4(G)
* 3. a7(R) b2(G)
* 4. b7(c) d7(p)
* 5. c8(P) d3(r)
* 6. d6(P) d4(k)
* 7. a5(M) a1(N)
* 8. d1(p) a8(P)
* 9. c2(n) d2(m)
* 10. c3(p) d8(r)
* 11. c6(K) a2(P)
* 12. a3(C) c1(C)
* 13. b6(c) c7(R)
* 14. c7-d7 a6(p)
* 15. d5(m) d8-c8
* 16. d7-d8 b7-c7
* 17. b4(g) c4(n)
* 18. c5(p) b3(g)
* 19. d8-d7 c8-d8
* 20. c6-b6 d8-c8
* 21. d7-d8 c7-d7
* 22. b6-b7 d7-c7
* 23. b7-b6 c7-b7
* 24. b6-b7 c8-c7
* 25. b7-b6 c7-b7
* 26. b6-c6 b7-c7
* 27. c6-b6 c7-b7
* 28. b6-c6 b7-c7
* 29. c6-b6 c7-b7
* 30. b6-c6 b7-c7
* 31. c6-b6
* PositionRepetitionDraw,3,4 a0_mu Draw 0.500000,0.500000
* Comment 0 0
0. 1771411925696
1. 1771411925696
2. 1771411926883
3. 1771411927841
4. 1771411928839
5. 1771411929795
6. 1771411930795
7. 1771411931749
8. 1771411932751
9. 1771411933703
10. 1771411934707
11. 1771411935657
12. 1771411936661
13. 1771411937612
14. 1771411938615
15. 1771411939566
16. 1771411940569
17. 1771411941522
18. 1771411942524
19. 1771411943478
20. 1771411944478
21. 1771411945434
22. 1771411946432
23. 1771411947439
24. 1771411948436
25. 1771411949395
26. 1771411950390
27. 1771411951351
28. 1771411952395
29. 1771411953357
30. 1771411954399
31. 1771411955363
32. 1771411956403
33. 1771411957367
34. 1771411958408
35. 1771411959372
36. 1771411960413
37. 1771411961375
38. 1771411962417
39. 1771411963379
40. 1771411964422
41. 1771411965384
42. 1771411966427
43. 1771411967388
44. 1771411968431
45. 1771411969391
46. 1771411970436
47. 1771411971395
48. 1771411972389
49. 1771411973348
50. 1771411974344
51. 1771411975302
52. 1771411976298
53. 1771411977256
54. 1771411978252
55. 1771411979210
56. 1771411980206
57. 1771411981214
58. 1771411982210
59. 1771411983168
60. 1771411984164
61. 1771411985122

# 10 27 29 63 65 99 101 135 137 171 173 207 209 243 245 279 281 315 317 351 353 387 389 423 425 459 461 495 497 531 533 567 569 603 605 639 641 675 677 711 713 747 749 783 785 819 821 855 857 891 893 927 929 963 965 999 1001 1035 1037 1071 1073 #
LightZero MGTP Interface Ready
=1 LightZero_DarkChess

=2 1.0.0

=7 

=15 

=14 

[debug] move action_id=319, action=((7, 1), (7, 1)), 
[debug] current_player=1 (B), 
[debug] board[(7, 1)]=2, board[(7, 1)]=2, 
[debug] board state:
[[15 15 15 15]
 [15 15 15 15]
 [15 15 15 15]
 [15 15 15 15]
 [15 15 15 15]
 [15 15 15 15]
 [15 15 15 15]
 [15  2 15 15]], 

=11 

=16 

=12 b8 b8

[debug] move action_id=11, action=((0, 1), (0, 1)), 
[debug] current_player=0 (R), 
[debug] board[(0, 1)]=4, board[(0, 1)]=4, 
[debug] board state:
[[15  4 15 15]
 [15 15 15 15]
 [15 15 15 15]
 [15 15 15 15]
 [15 15 15 15]
 [15 15 15 15]
 [15 15 15 15]
 [15  2 15 15]], 

=11 

=16 

[debug] move action_id=143, action=((3, 1), (3, 1)), 
[debug] current_player=1 (B), 
[debug] board[(3, 1)]=6, board[(3, 1)]=6, 
[debug] board state:
[[15  4 15 15]
 [15 15 15 15]
 [15 15 15 15]
 [15  6 15 15]
 [15 15 15 15]
 [15 15 15 15]
 [15 15 15 15]
 [15  2 15 15]], 

=11 

=16 

=12 a4 a4

[debug] move action_id=176, action=((4, 0), (4, 0)), 
[debug] current_player=0 (R), 
[debug] board[(4, 0)]=1, board[(4, 0)]=1, 
[debug] board state:
[[15  4 15 15]
 [15 15 15 15]
 [15 15 15 15]
 [15  6 15 15]
 [ 1 15 15 15]
 [15 15 15 15]
 [15 15 15 15]
 [15  2 15 15]], 

=11 

=16 

[debug] move action_id=44, action=((1, 0), (1, 0)), 
[debug] current_player=1 (B), 
[debug] board[(1, 0)]=3, board[(1, 0)]=3, 
[debug] board state:
[[15  4 15 15]
 [ 3 15 15 15]
 [15 15 15 15]
 [15  6 15 15]
 [ 1 15 15 15]
 [15 15 15 15]
 [15 15 15 15]
 [15  2 15 15]], 

=11 

=16 

=12 b2 b2

[debug] move action_id=275, action=((6, 1), (6, 1)), 
[debug] current_player=0 (R), 
[debug] board[(6, 1)]=1, board[(6, 1)]=1, 
[debug] board state:
[[15  4 15 15]
 [ 3 15 15 15]
 [15 15 15 15]
 [15  6 15 15]
 [ 1 15 15 15]
 [15 15 15 15]
 [15  1 15 15]
 [15  2 15 15]], 

=11 

=16 

[debug] move action_id=55, action=((1, 1), (1, 1)), 
[debug] current_player=1 (B), 
[debug] board[(1, 1)]=12, board[(1, 1)]=12, 
[debug] board state:
[[15  4 15 15]
 [ 3 12 15 15]
 [15 15 15 15]
 [15  6 15 15]
 [ 1 15 15 15]
 [15 15 15 15]
 [15  1 15 15]
 [15  2 15 15]], 

=11 

=16 

=12 d7 d7

[debug] move action_id=77, action=((1, 3), (1, 3)), 
[debug] current_player=0 (R), 
[debug] board[(1, 3)]=13, board[(1, 3)]=13, 
[debug] board state:
[[15  4 15 15]
 [ 3 12 15 13]
 [15 15 15 15]
 [15  6 15 15]
 [ 1 15 15 15]
 [15 15 15 15]
 [15  1 15 15]
 [15  2 15 15]], 

=11 

=16 

[debug] move action_id=22, action=((0, 2), (0, 2)), 
[debug] current_player=1 (B), 
[debug] board[(0, 2)]=6, board[(0, 2)]=6, 
[debug] board state:
[[15  4  6 15]
 [ 3 12 15 13]
 [15 15 15 15]
 [15  6 15 15]
 [ 1 15 15 15]
 [15 15 15 15]
 [15  1 15 15]
 [15  2 15 15]], 

=11 

=16 

=12 d3 d3

[debug] move action_id=253, action=((5, 3), (5, 3)), 
[debug] current_player=0 (R), 
[debug] board[(5, 3)]=10, board[(5, 3)]=10, 
[debug] board state:
[[15  4  6 15]
 [ 3 12 15 13]
 [15 15 15 15]
 [15  6 15 15]
 [ 1 15 15 15]
 [15 15 15 10]
 [15  1 15 15]
 [15  2 15 15]], 

=11 

=16 

[debug] move action_id=121, action=((2, 3), (2, 3)), 
[debug] current_player=1 (B), 
[debug] board[(2, 3)]=6, board[(2, 3)]=6, 
[debug] board state:
[[15  4  6 15]
 [ 3 12 15 13]
 [15 15 15  6]
 [15  6 15 15]
 [ 1 15 15 15]
 [15 15 15 10]
 [15  1 15 15]
 [15  2 15 15]], 

=11 

=16 

=12 d4 d4

[debug] move action_id=209, action=((4, 3), (4, 3)), 
[debug] current_player=0 (R), 
[debug] board[(4, 3)]=7, board[(4, 3)]=7, 
[debug] board state:
[[15  4  6 15]
 [ 3 12 15 13]
 [15 15 15  6]
 [15  6 15 15]
 [ 1 15 15  7]
 [15 15 15 10]
 [15  1 15 15]
 [15  2 15 15]], 

=11 

=16 

[debug] move action_id=132, action=((3, 0), (3, 0)), 
[debug] current_player=1 (B), 
[debug] board[(3, 0)]=2, board[(3, 0)]=2, 
[debug] board state:
[[15  4  6 15]
 [ 3 12 15 13]
 [15 15 15  6]
 [ 2  6 15 15]
 [ 1 15 15  7]
 [15 15 15 10]
 [15  1 15 15]
 [15  2 15 15]], 

=11 

=16 

=12 a1 a1

[debug] move action_id=308, action=((7, 0), (7, 0)), 
[debug] current_player=0 (R), 
[debug] board[(7, 0)]=4, board[(7, 0)]=4, 
[debug] board state:
[[15  4  6 15]
 [ 3 12 15 13]
 [15 15 15  6]
 [ 2  6 15 15]
 [ 1 15 15  7]
 [15 15 15 10]
 [15  1 15 15]
 [ 4  2 15 15]], 

=11 

=16 

[debug] move action_id=341, action=((7, 3), (7, 3)), 
[debug] current_player=1 (B), 
[debug] board[(7, 3)]=13, board[(7, 3)]=13, 
[debug] board state:
[[15  4  6 15]
 [ 3 12 15 13]
 [15 15 15  6]
 [ 2  6 15 15]
 [ 1 15 15  7]
 [15 15 15 10]
 [15  1 15 15]
 [ 4  2 15 13]], 

=11 

=16 

=12 a8 a8

[debug] move action_id=0, action=((0, 0), (0, 0)), 
[debug] current_player=0 (R), 
[debug] board[(0, 0)]=6, board[(0, 0)]=6, 
[debug] board state:
[[ 6  4  6 15]
 [ 3 12 15 13]
 [15 15 15  6]
 [ 2  6 15 15]
 [ 1 15 15  7]
 [15 15 15 10]
 [15  1 15 15]
 [ 4  2 15 13]], 

=11 

=16 

[debug] move action_id=286, action=((6, 2), (6, 2)), 
[debug] current_player=1 (B), 
[debug] board[(6, 2)]=11, board[(6, 2)]=11, 
[debug] board state:
[[ 6  4  6 15]
 [ 3 12 15 13]
 [15 15 15  6]
 [ 2  6 15 15]
 [ 1 15 15  7]
 [15 15 15 10]
 [15  1 11 15]
 [ 4  2 15 13]], 

=11 

=16 

=12 d2 d2

[debug] move action_id=297, action=((6, 3), (6, 3)), 
[debug] current_player=0 (R), 
[debug] board[(6, 3)]=9, board[(6, 3)]=9, 
[debug] board state:
[[ 6  4  6 15]
 [ 3 12 15 13]
 [15 15 15  6]
 [ 2  6 15 15]
 [ 1 15 15  7]
 [15 15 15 10]
 [15  1 11  9]
 [ 4  2 15 13]], 

=11 

=16 

[debug] move action_id=242, action=((5, 2), (5, 2)), 
[debug] current_player=1 (B), 
[debug] board[(5, 2)]=13, board[(5, 2)]=13, 
[debug] board state:
[[ 6  4  6 15]
 [ 3 12 15 13]
 [15 15 15  6]
 [ 2  6 15 15]
 [ 1 15 15  7]
 [15 15 13 10]
 [15  1 11  9]
 [ 4  2 15 13]], 

=11 

=16 

=12 d8 d8

[debug] move action_id=33, action=((0, 3), (0, 3)), 
[debug] current_player=0 (R), 
[debug] board[(0, 3)]=10, board[(0, 3)]=10, 
[debug] board state:
[[ 6  4  6 10]
 [ 3 12 15 13]
 [15 15 15  6]
 [ 2  6 15 15]
 [ 1 15 15  7]
 [15 15 13 10]
 [15  1 11  9]
 [ 4  2 15 13]], 

=11 

=16 

[debug] move action_id=110, action=((2, 2), (2, 2)), 
[debug] current_player=1 (B), 
[debug] board[(2, 2)]=0, board[(2, 2)]=0, 
[debug] board state:
[[ 6  4  6 10]
 [ 3 12 15 13]
 [15 15  0  6]
 [ 2  6 15 15]
 [ 1 15 15  7]
 [15 15 13 10]
 [15  1 11  9]
 [ 4  2 15 13]], 

=11 

=16 

=12 a2 a2

[debug] move action_id=264, action=((6, 0), (6, 0)), 
[debug] current_player=0 (R), 
[debug] board[(6, 0)]=6, board[(6, 0)]=6, 
[debug] board state:
[[ 6  4  6 10]
 [ 3 12 15 13]
 [15 15  0  6]
 [ 2  6 15 15]
 [ 1 15 15  7]
 [15 15 13 10]
 [ 6  1 11  9]
 [ 4  2 15 13]], 

=11 

=16 

[debug] move action_id=220, action=((5, 0), (5, 0)), 
[debug] current_player=1 (B), 
[debug] board[(5, 0)]=5, board[(5, 0)]=5, 
[debug] board state:
[[ 6  4  6 10]
 [ 3 12 15 13]
 [15 15  0  6]
 [ 2  6 15 15]
 [ 1 15 15  7]
 [ 5 15 13 10]
 [ 6  1 11  9]
 [ 4  2 15 13]], 

=11 

=16 

=12 c1 c1

[debug] move action_id=330, action=((7, 2), (7, 2)), 
[debug] current_player=0 (R), 
[debug] board[(7, 2)]=5, board[(7, 2)]=5, 
[debug] board state:
[[ 6  4  6 10]
 [ 3 12 15 13]
 [15 15  0  6]
 [ 2  6 15 15]
 [ 1 15 15  7]
 [ 5 15 13 10]
 [ 6  1 11  9]
 [ 4  2  5 13]], 

=11 

=16 

[debug] move action_id=99, action=((2, 1), (2, 1)), 
[debug] current_player=1 (B), 
[debug] board[(2, 1)]=12, board[(2, 1)]=12, 
[debug] board state:
[[ 6  4  6 10]
 [ 3 12 15 13]
 [15 12  0  6]
 [ 2  6 15 15]
 [ 1 15 15  7]
 [ 5 15 13 10]
 [ 6  1 11  9]
 [ 4  2  5 13]], 

=11 

=16 

=12 c7 c7

[debug] move action_id=66, action=((1, 2), (1, 2)), 
[debug] current_player=0 (R), 
[debug] board[(1, 2)]=3, board[(1, 2)]=3, 
[debug] board state:
[[ 6  4  6 10]
 [ 3 12  3 13]
 [15 12  0  6]
 [ 2  6 15 15]
 [ 1 15 15  7]
 [ 5 15 13 10]
 [ 6  1 11  9]
 [ 4  2  5 13]], 

=11 

=16 

[debug] move action_id=76, action=((1, 2), (1, 3)), 
[debug] current_player=1 (B), 
[debug] board[(1, 2)]=14, board[(1, 3)]=3, 
[debug] board state:
[[ 6  4  6 10]
 [ 3 12 14  3]
 [15 12  0  6]
 [ 2  6 15 15]
 [ 1 15 15  7]
 [ 5 15 13 10]
 [ 6  1 11  9]
 [ 4  2  5 13]], 

=10 

=16 

=12 a6 a6

[debug] move action_id=88, action=((2, 0), (2, 0)), 
[debug] current_player=0 (R), 
[debug] board[(2, 0)]=13, board[(2, 0)]=13, 
[debug] board state:
[[ 6  4  6 10]
 [ 3 12 14  3]
 [13 12  0  6]
 [ 2  6 15 15]
 [ 1 15 15  7]
 [ 5 15 13 10]
 [ 6  1 11  9]
 [ 4  2  5 13]], 

=11 

=16 

[debug] move action_id=165, action=((3, 3), (3, 3)), 
[debug] current_player=1 (B), 
[debug] board[(3, 3)]=9, board[(3, 3)]=9, 
[debug] board state:
[[ 6  4  6 10]
 [ 3 12 14  3]
 [13 12  0  6]
 [ 2  6 15  9]
 [ 1 15 15  7]
 [ 5 15 13 10]
 [ 6  1 11  9]
 [ 4  2  5 13]], 

=11 

=16 

=12 d8 c8

[debug] move action_id=43, action=((0, 3), (0, 2)), 
[debug] current_player=0 (R), 
[debug] board[(0, 3)]=14, board[(0, 2)]=10, 
[debug] board state:
[[ 6  4 10 14]
 [ 3 12 14  3]
 [13 12  0  6]
 [ 2  6 15  9]
 [ 1 15 15  7]
 [ 5 15 13 10]
 [ 6  1 11  9]
 [ 4  2  5 13]], 

=10 

=16 

[debug] move action_id=34, action=((1, 3), (0, 3)), 
[debug] current_player=1 (B), 
[debug] board[(1, 3)]=14, board[(0, 3)]=3, 
[debug] board state:
[[ 6  4 10  3]
 [ 3 12 14 14]
 [13 12  0  6]
 [ 2  6 15  9]
 [ 1 15 15  7]
 [ 5 15 13 10]
 [ 6  1 11  9]
 [ 4  2  5 13]], 

=10 

=16 

=12 b7 c7

[debug] move action_id=64, action=((1, 1), (1, 2)), 
[debug] current_player=0 (R), 
[debug] board[(1, 1)]=14, board[(1, 2)]=12, 
[debug] board state:
[[ 6  4 10  3]
 [ 3 14 12 14]
 [13 12  0  6]
 [ 2  6 15  9]
 [ 1 15 15  7]
 [ 5 15 13 10]
 [ 6  1 11  9]
 [ 4  2  5 13]], 

=10 

=16 

[debug] move action_id=187, action=((4, 1), (4, 1)), 
[debug] current_player=1 (B), 
[debug] board[(4, 1)]=8, board[(4, 1)]=8, 
[debug] board state:
[[ 6  4 10  3]
 [ 3 14 12 14]
 [13 12  0  6]
 [ 2  6 15  9]
 [ 1  8 15  7]
 [ 5 15 13 10]
 [ 6  1 11  9]
 [ 4  2  5 13]], 

=11 

=16 

=12 c4 c4

[debug] move action_id=198, action=((4, 2), (4, 2)), 
[debug] current_player=0 (R), 
[debug] board[(4, 2)]=11, board[(4, 2)]=11, 
[debug] board state:
[[ 6  4 10  3]
 [ 3 14 12 14]
 [13 12  0  6]
 [ 2  6 15  9]
 [ 1  8 11  7]
 [ 5 15 13 10]
 [ 6  1 11  9]
 [ 4  2  5 13]], 

=11 

=16 

[debug] move action_id=154, action=((3, 2), (3, 2)), 
[debug] current_player=1 (B), 
[debug] board[(3, 2)]=13, board[(3, 2)]=13, 
[debug] board state:
[[ 6  4 10  3]
 [ 3 14 12 14]
 [13 12  0  6]
 [ 2  6 13  9]
 [ 1  8 11  7]
 [ 5 15 13 10]
 [ 6  1 11  9]
 [ 4  2  5 13]], 

=11 

=16 

=12 b3 b3

[debug] move action_id=231, action=((5, 1), (5, 1)), 
[debug] current_player=0 (R), 
[debug] board[(5, 1)]=8, board[(5, 1)]=8, 
[debug] board state:
[[ 6  4 10  3]
 [ 3 14 12 14]
 [13 12  0  6]
 [ 2  6 13  9]
 [ 1  8 11  7]
 [ 5  8 13 10]
 [ 6  1 11  9]
 [ 4  2  5 13]], 

=11 

=16 

[debug] move action_id=78, action=((0, 3), (1, 3)), 
[debug] current_player=1 (B), 
[debug] board[(0, 3)]=14, board[(1, 3)]=3, 
[debug] board state:
[[ 6  4 10 14]
 [ 3 14 12  3]
 [13 12  0  6]
 [ 2  6 13  9]
 [ 1  8 11  7]
 [ 5  8 13 10]
 [ 6  1 11  9]
 [ 4  2  5 13]], 

=10 

=16 

=12 c8 d8

[debug] move action_id=32, action=((0, 2), (0, 3)), 
[debug] current_player=0 (R), 
[debug] board[(0, 2)]=14, board[(0, 3)]=10, 
[debug] board state:
[[ 6  4 14 10]
 [ 3 14 12  3]
 [13 12  0  6]
 [ 2  6 13  9]
 [ 1  8 11  7]
 [ 5  8 13 10]
 [ 6  1 11  9]
 [ 4  2  5 13]], 

=10 

=16 

[debug] move action_id=119, action=((2, 2), (2, 1)), 
[debug] current_player=1 (B), 
[debug] board[(2, 2)]=14, board[(2, 1)]=0, 
[debug] board state:
[[ 6  4 14 10]
 [ 3 14 12  3]
 [13  0 14  6]
 [ 2  6 13  9]
 [ 1  8 11  7]
 [ 5  8 13 10]
 [ 6  1 11  9]
 [ 4  2  5 13]], 

=10 

=16 

=12 d8 c8

[debug] move action_id=43, action=((0, 3), (0, 2)), 
[debug] current_player=0 (R), 
[debug] board[(0, 3)]=14, board[(0, 2)]=10, 
[debug] board state:
[[ 6  4 10 14]
 [ 3 14 12  3]
 [13  0 14  6]
 [ 2  6 13  9]
 [ 1  8 11  7]
 [ 5  8 13 10]
 [ 6  1 11  9]
 [ 4  2  5 13]], 

=10 

=16 

[debug] move action_id=34, action=((1, 3), (0, 3)), 
[debug] current_player=1 (B), 
[debug] board[(1, 3)]=14, board[(0, 3)]=3, 
[debug] board state:
[[ 6  4 10  3]
 [ 3 14 12 14]
 [13  0 14  6]
 [ 2  6 13  9]
 [ 1  8 11  7]
 [ 5  8 13 10]
 [ 6  1 11  9]
 [ 4  2  5 13]], 

=10 

=16 

=12 c7 d7

[debug] move action_id=76, action=((1, 2), (1, 3)), 
[debug] current_player=0 (R), 
[debug] board[(1, 2)]=14, board[(1, 3)]=12, 
[debug] board state:
[[ 6  4 10  3]
 [ 3 14 14 12]
 [13  0 14  6]
 [ 2  6 13  9]
 [ 1  8 11  7]
 [ 5  8 13 10]
 [ 6  1 11  9]
 [ 4  2  5 13]], 

=10 

=16 

[debug] move action_id=57, action=((2, 1), (1, 1)), 
[debug] current_player=1 (B), 
[debug] board[(2, 1)]=14, board[(1, 1)]=0, 
[debug] board state:
[[ 6  4 10  3]
 [ 3  0 14 12]
 [13 14 14  6]
 [ 2  6 13  9]
 [ 1  8 11  7]
 [ 5  8 13 10]
 [ 6  1 11  9]
 [ 4  2  5 13]], 

=10 

=16 

=12 d7 c7

[debug] move action_id=87, action=((1, 3), (1, 2)), 
[debug] current_player=0 (R), 
[debug] board[(1, 3)]=14, board[(1, 2)]=12, 
[debug] board state:
[[ 6  4 10  3]
 [ 3  0 12 14]
 [13 14 14  6]
 [ 2  6 13  9]
 [ 1  8 11  7]
 [ 5  8 13 10]
 [ 6  1 11  9]
 [ 4  2  5 13]], 

=10 

=16 

[debug] move action_id=101, action=((1, 1), (2, 1)), 
[debug] current_player=1 (B), 
[debug] board[(1, 1)]=14, board[(2, 1)]=0, 
[debug] board state:
[[ 6  4 10  3]
 [ 3 14 12 14]
 [13  0 14  6]
 [ 2  6 13  9]
 [ 1  8 11  7]
 [ 5  8 13 10]
 [ 6  1 11  9]
 [ 4  2  5 13]], 

=10 

=16 

=12 c7 b7

[debug] move action_id=75, action=((1, 2), (1, 1)), 
[debug] current_player=0 (R), 
[debug] board[(1, 2)]=14, board[(1, 1)]=12, 
[debug] board state:
[[ 6  4 10  3]
 [ 3 12 14 14]
 [13  0 14  6]
 [ 2  6 13  9]
 [ 1  8 11  7]
 [ 5  8 13 10]
 [ 6  1 11  9]
 [ 4  2  5 13]], 

=10 

=16 

[debug] move action_id=57, action=((2, 1), (1, 1)), 
[debug] current_player=1 (B), 
[debug] board[(2, 1)]=14, board[(1, 1)]=0, 
[debug] board state:
[[ 6  4 10  3]
 [ 3  0 14 14]
 [13 14 14  6]
 [ 2  6 13  9]
 [ 1  8 11  7]
 [ 5  8 13 10]
 [ 6  1 11  9]
 [ 4  2  5 13]], 

=10 

=16 

=12 c8 c7

[debug] move action_id=67, action=((0, 2), (1, 2)), 
[debug] current_player=0 (R), 
[debug] board[(0, 2)]=14, board[(1, 2)]=10, 
[debug] board state:
[[ 6  4 14  3]
 [ 3  0 10 14]
 [13 14 14  6]
 [ 2  6 13  9]
 [ 1  8 11  7]
 [ 5  8 13 10]
 [ 6  1 11  9]
 [ 4  2  5 13]], 

=10 

=16 

[debug] move action_id=101, action=((1, 1), (2, 1)), 
[debug] current_player=1 (B), 
[debug] board[(1, 1)]=14, board[(2, 1)]=0, 
[debug] board state:
[[ 6  4 14  3]
 [ 3 14 10 14]
 [13  0 14  6]
 [ 2  6 13  9]
 [ 1  8 11  7]
 [ 5  8 13 10]
 [ 6  1 11  9]
 [ 4  2  5 13]], 

=10 

=16 

=12 c7 b7

[debug] move action_id=75, action=((1, 2), (1, 1)), 
[debug] current_player=0 (R), 
[debug] board[(1, 2)]=14, board[(1, 1)]=10, 
[debug] board state:
[[ 6  4 14  3]
 [ 3 10 14 14]
 [13  0 14  6]
 [ 2  6 13  9]
 [ 1  8 11  7]
 [ 5  8 13 10]
 [ 6  1 11  9]
 [ 4  2  5 13]], 

=10 

=16 

[debug] move action_id=108, action=((2, 1), (2, 2)), 
[debug] current_player=1 (B), 
[debug] board[(2, 1)]=14, board[(2, 2)]=0, 
[debug] board state:
[[ 6  4 14  3]
 [ 3 10 14 14]
 [13 14  0  6]
 [ 2  6 13  9]
 [ 1  8 11  7]
 [ 5  8 13 10]
 [ 6  1 11  9]
 [ 4  2  5 13]], 

=10 

=16 

=12 b7 c7

[debug] move action_id=64, action=((1, 1), (1, 2)), 
[debug] current_player=0 (R), 
[debug] board[(1, 1)]=14, board[(1, 2)]=10, 
[debug] board state:
[[ 6  4 14  3]
 [ 3 14 10 14]
 [13 14  0  6]
 [ 2  6 13  9]
 [ 1  8 11  7]
 [ 5  8 13 10]
 [ 6  1 11  9]
 [ 4  2  5 13]], 

=10 

=16 

[debug] move action_id=119, action=((2, 2), (2, 1)), 
[debug] current_player=1 (B), 
[debug] board[(2, 2)]=14, board[(2, 1)]=0, 
[debug] board state:
[[ 6  4 14  3]
 [ 3 14 10 14]
 [13  0 14  6]
 [ 2  6 13  9]
 [ 1  8 11  7]
 [ 5  8 13 10]
 [ 6  1 11  9]
 [ 4  2  5 13]], 

=10 

=16 

=12 c7 b7

[debug] move action_id=75, action=((1, 2), (1, 1)), 
[debug] current_player=0 (R), 
[debug] board[(1, 2)]=14, board[(1, 1)]=10, 
[debug] board state:
[[ 6  4 14  3]
 [ 3 10 14 14]
 [13  0 14  6]
 [ 2  6 13  9]
 [ 1  8 11  7]
 [ 5  8 13 10]
 [ 6  1 11  9]
 [ 4  2  5 13]], 

=10 

=16 

[debug] move action_id=108, action=((2, 1), (2, 2)), 
[debug] current_player=1 (B), 
[debug] board[(2, 1)]=14, board[(2, 2)]=0, 
[debug] board state:
[[ 6  4 14  3]
 [ 3 10 14 14]
 [13 14  0  6]
 [ 2  6 13  9]
 [ 1  8 11  7]
 [ 5  8 13 10]
 [ 6  1 11  9]
 [ 4  2  5 13]], 

=10 

=16 

=12 b7 c7

[debug] move action_id=64, action=((1, 1), (1, 2)), 
[debug] current_player=0 (R), 
[debug] board[(1, 1)]=14, board[(1, 2)]=10, 
[debug] board state:
[[ 6  4 14  3]
 [ 3 14 10 14]
 [13 14  0  6]
 [ 2  6 13  9]
 [ 1  8 11  7]
 [ 5  8 13 10]
 [ 6  1 11  9]
 [ 4  2  5 13]], 

=10 

=16 

[debug] move action_id=119, action=((2, 2), (2, 1)), 
[debug] current_player=1 (B), 
[debug] board[(2, 2)]=14, board[(2, 1)]=0, 
[debug] board state:
[[ 6  4 14  3]
 [ 3 14 10 14]
 [13  0 14  6]
 [ 2  6 13  9]
 [ 1  8 11  7]
 [ 5  8 13 10]
 [ 6  1 11  9]
 [ 4  2  5 13]], 

=10 

=16 

=12 c7 b7

[debug] move action_id=75, action=((1, 2), (1, 1)), 
[debug] current_player=0 (R), 
[debug] board[(1, 2)]=14, board[(1, 1)]=10, 
[debug] board state:
[[ 6  4 14  3]
 [ 3 10 14 14]
 [13  0 14  6]
 [ 2  6 13  9]
 [ 1  8 11  7]
 [ 5  8 13 10]
 [ 6  1 11  9]
 [ 4  2  5 13]], 

=10 

=16 

[debug] move action_id=108, action=((2, 1), (2, 2)), 
[debug] current_player=1 (B), 
[debug] board[(2, 1)]=14, board[(2, 2)]=0, 
[debug] board state:
[[ 6  4 14  3]
 [ 3 10 14 14]
 [13 14  0  6]
 [ 2  6 13  9]
 [ 1  8 11  7]
 [ 5  8 13 10]
 [ 6  1 11  9]
 [ 4  2  5 13]], 

=10 

=16 

=12 b7 c7

[debug] move action_id=64, action=((1, 1), (1, 2)), 
[debug] current_player=0 (R), 
[debug] board[(1, 1)]=14, board[(1, 2)]=10, 
[debug] board state:
[[ 6  4 14  3]
 [ 3 14 10 14]
 [13 14  0  6]
 [ 2  6 13  9]
 [ 1  8 11  7]
 [ 5  8 13 10]
 [ 6  1 11  9]
 [ 4  2  5 13]], 

=10 

=16 

[debug] move action_id=119, action=((2, 2), (2, 1)), 
[debug] current_player=1 (B), 
[debug] board[(2, 2)]=14, board[(2, 1)]=0, 
[debug] board state:
[[ 6  4 14  3]
 [ 3 14 10 14]
 [13  0 14  6]
 [ 2  6 13  9]
 [ 1  8 11  7]
 [ 5  8 13 10]
 [ 6  1 11  9]
 [ 4  2  5 13]], 

=10 

=16 


