INITIAL
* 7:22pm Feb 18, 2026
* a0_mu vs a1_lightzero
* 1 2 2 2 2 2 5 1 2 2 2 2 2 5
* X X X X
* X X X X
* X X X X
* X X X X
* X X X X
* X X X X
* X X X X
* X X X X
* first 0
* time 900
* 1. b1(G) b8(R)
* 2. c7(k) a4(p)
* 3. a6(P) d6(c)
* 4. b5(m) d7(c)
* 5. c5(P) d3(n)
* 6. a7(N) d1(R)
* 7. c8(G) c2(n)
* 8. d8(g) d2(p)
* 9. a2(r) a5(K)
* 10. b2(p) c1(p)
* 11. c3(m) d5(g)
* 12. a8(C) a1(N)
* 13. b3(M) d4(C)
* 14. b6(r) c4(P)
* 15. c6(P) a3(p)
* 16. b4(M) d5-d4
* 17. b7(P) d4-d5
* 18. b3-a3 c3-b3
* 19. c4-c3 d3-d4
* 20. b4-c4 b3-b4
* 21. c6-c7 d2-d3
* 22. d1-d2 b6-c6
* 23. c3-b3 c1-d1
* 24. c4-c3 d1-c1
* 25. c3-c4 d3-c3
* 26. b1-b2 c1-b1
* 27. c4-d4 b4-c4
* 28. a1-b1 c2-c1
* 29. b2-c2 a2-b2
* 30. a3-a2 a4-a3
* 31. a2-a1 a3-a4
* 32. a1-a2 a4-a3
* 33. a2-a1 a3-a2
* 34. b3-a3 c4-b4
* 35. d4-c4 c1-d1
* 36. c4-d4 d1-c1
* 37. d4-c4 c1-d1
* 38. c4-d4 d1-c1
* 39. d4-c4 c1-d1
* 40. c4-d4 d1-c1
* PositionRepetitionDraw,3,4 a0_mu Draw 0.500000,0.500000
* Comment 0 0
0. 1771413775661
1. 1771413775661
2. 1771413776846
3. 1771413777806
4. 1771413778752
5. 1771413779709
6. 1771413780706
7. 1771413781663
8. 1771413782659
9. 1771413783617
10. 1771413784612
11. 1771413785571
12. 1771413786516
13. 1771413787475
14. 1771413788419
15. 1771413789379
16. 1771413790375
17. 1771413791333
18. 1771413792331
19. 1771413793287
20. 1771413794285
21. 1771413795240
22. 1771413796239
23. 1771413797194
24. 1771413798193
25. 1771413799148
26. 1771413800147
27. 1771413801102
28. 1771413802100
29. 1771413803056
30. 1771413804053
31. 1771413805009
32. 1771413805958
33. 1771413806913
34. 1771413807912
35. 1771413808866
36. 1771413809866
37. 1771413810820
38. 1771413811820
39. 1771413812773
40. 1771413813774
41. 1771413814726
42. 1771413815728
43. 1771413816680
44. 1771413817682
45. 1771413818633
46. 1771413819586
47. 1771413820537
48. 1771413821541
49. 1771413822540
50. 1771413823544
51. 1771413824493
52. 1771413825499
53. 1771413826447
54. 1771413827452
55. 1771413828401
56. 1771413829406
57. 1771413830356
58. 1771413831360
59. 1771413832360
60. 1771413833364
61. 1771413834313
62. 1771413835318
63. 1771413836268
64. 1771413837272
65. 1771413838222
66. 1771413839225
67. 1771413840176
68. 1771413841179
69. 1771413842130
70. 1771413843133
71. 1771413844084
72. 1771413845037
73. 1771413845988
74. 1771413846990
75. 1771413847942
76. 1771413848945
77. 1771413849896
78. 1771413850900
79. 1771413851851
80. 1771413852854

# 10 27 29 63 65 99 101 135 137 171 173 207 209 243 245 279 281 315 317 351 353 387 389 423 425 459 461 495 497 531 533 567 569 603 605 639 641 675 677 711 713 747 749 783 785 819 821 855 857 891 893 927 929 963 965 999 1001 1035 1037 1071 1073 1107 1109 1143 1145 1179 1181 1215 1217 1251 1253 1287 1289 1323 1325 1359 1361 1395 1397 1431 1433 #
LightZero MGTP Interface Ready
=1 LightZero_DarkChess

=2 1.0.0

=7 

=15 

=14 

[debug] move action_id=319, action=((7, 1), (7, 1)), 
[debug] current_player=1 (B), 
[debug] board[(7, 1)]=1, board[(7, 1)]=1, 
[debug] board state:
[[15 15 15 15]
 [15 15 15 15]
 [15 15 15 15]
 [15 15 15 15]
 [15 15 15 15]
 [15 15 15 15]
 [15 15 15 15]
 [15  1 15 15]], 

=11 

=16 

=12 b8 b8

[debug] move action_id=11, action=((0, 1), (0, 1)), 
[debug] current_player=0 (R), 
[debug] board[(0, 1)]=3, board[(0, 1)]=3, 
[debug] board state:
[[15  3 15 15]
 [15 15 15 15]
 [15 15 15 15]
 [15 15 15 15]
 [15 15 15 15]
 [15 15 15 15]
 [15 15 15 15]
 [15  1 15 15]], 

=11 

=16 

[debug] move action_id=66, action=((1, 2), (1, 2)), 
[debug] current_player=1 (B), 
[debug] board[(1, 2)]=7, board[(1, 2)]=7, 
[debug] board state:
[[15  3 15 15]
 [15 15  7 15]
 [15 15 15 15]
 [15 15 15 15]
 [15 15 15 15]
 [15 15 15 15]
 [15 15 15 15]
 [15  1 15 15]], 

=11 

=16 

=12 a4 a4

[debug] move action_id=176, action=((4, 0), (4, 0)), 
[debug] current_player=0 (R), 
[debug] board[(4, 0)]=13, board[(4, 0)]=13, 
[debug] board state:
[[15  3 15 15]
 [15 15  7 15]
 [15 15 15 15]
 [15 15 15 15]
 [13 15 15 15]
 [15 15 15 15]
 [15 15 15 15]
 [15  1 15 15]], 

=11 

=16 

[debug] move action_id=88, action=((2, 0), (2, 0)), 
[debug] current_player=1 (B), 
[debug] board[(2, 0)]=6, board[(2, 0)]=6, 
[debug] board state:
[[15  3 15 15]
 [15 15  7 15]
 [ 6 15 15 15]
 [15 15 15 15]
 [13 15 15 15]
 [15 15 15 15]
 [15 15 15 15]
 [15  1 15 15]], 

=11 

=16 

=12 d6 d6

[debug] move action_id=121, action=((2, 3), (2, 3)), 
[debug] current_player=0 (R), 
[debug] board[(2, 3)]=12, board[(2, 3)]=12, 
[debug] board state:
[[15  3 15 15]
 [15 15  7 15]
 [ 6 15 15 12]
 [15 15 15 15]
 [13 15 15 15]
 [15 15 15 15]
 [15 15 15 15]
 [15  1 15 15]], 

=11 

=16 

[debug] move action_id=143, action=((3, 1), (3, 1)), 
[debug] current_player=1 (B), 
[debug] board[(3, 1)]=9, board[(3, 1)]=9, 
[debug] board state:
[[15  3 15 15]
 [15 15  7 15]
 [ 6 15 15 12]
 [15  9 15 15]
 [13 15 15 15]
 [15 15 15 15]
 [15 15 15 15]
 [15  1 15 15]], 

=11 

=16 

=12 d7 d7

[debug] move action_id=77, action=((1, 3), (1, 3)), 
[debug] current_player=0 (R), 
[debug] board[(1, 3)]=12, board[(1, 3)]=12, 
[debug] board state:
[[15  3 15 15]
 [15 15  7 12]
 [ 6 15 15 12]
 [15  9 15 15]
 [13 15 15 15]
 [15 15 15 15]
 [15 15 15 15]
 [15  1 15 15]], 

=11 

=16 

[debug] move action_id=154, action=((3, 2), (3, 2)), 
[debug] current_player=1 (B), 
[debug] board[(3, 2)]=6, board[(3, 2)]=6, 
[debug] board state:
[[15  3 15 15]
 [15 15  7 12]
 [ 6 15 15 12]
 [15  9  6 15]
 [13 15 15 15]
 [15 15 15 15]
 [15 15 15 15]
 [15  1 15 15]], 

=11 

=16 

=12 d3 d3

[debug] move action_id=253, action=((5, 3), (5, 3)), 
[debug] current_player=0 (R), 
[debug] board[(5, 3)]=11, board[(5, 3)]=11, 
[debug] board state:
[[15  3 15 15]
 [15 15  7 12]
 [ 6 15 15 12]
 [15  9  6 15]
 [13 15 15 15]
 [15 15 15 11]
 [15 15 15 15]
 [15  1 15 15]], 

=11 

=16 

[debug] move action_id=44, action=((1, 0), (1, 0)), 
[debug] current_player=1 (B), 
[debug] board[(1, 0)]=4, board[(1, 0)]=4, 
[debug] board state:
[[15  3 15 15]
 [ 4 15  7 12]
 [ 6 15 15 12]
 [15  9  6 15]
 [13 15 15 15]
 [15 15 15 11]
 [15 15 15 15]
 [15  1 15 15]], 

=11 

=16 

=12 d1 d1

[debug] move action_id=341, action=((7, 3), (7, 3)), 
[debug] current_player=0 (R), 
[debug] board[(7, 3)]=3, board[(7, 3)]=3, 
[debug] board state:
[[15  3 15 15]
 [ 4 15  7 12]
 [ 6 15 15 12]
 [15  9  6 15]
 [13 15 15 15]
 [15 15 15 11]
 [15 15 15 15]
 [15  1 15  3]], 

=11 

=16 

[debug] move action_id=22, action=((0, 2), (0, 2)), 
[debug] current_player=1 (B), 
[debug] board[(0, 2)]=1, board[(0, 2)]=1, 
[debug] board state:
[[15  3  1 15]
 [ 4 15  7 12]
 [ 6 15 15 12]
 [15  9  6 15]
 [13 15 15 15]
 [15 15 15 11]
 [15 15 15 15]
 [15  1 15  3]], 

=11 

=16 

=12 c2 c2

[debug] move action_id=286, action=((6, 2), (6, 2)), 
[debug] current_player=0 (R), 
[debug] board[(6, 2)]=11, board[(6, 2)]=11, 
[debug] board state:
[[15  3  1 15]
 [ 4 15  7 12]
 [ 6 15 15 12]
 [15  9  6 15]
 [13 15 15 15]
 [15 15 15 11]
 [15 15 11 15]
 [15  1 15  3]], 

=11 

=16 

[debug] move action_id=33, action=((0, 3), (0, 3)), 
[debug] current_player=1 (B), 
[debug] board[(0, 3)]=8, board[(0, 3)]=8, 
[debug] board state:
[[15  3  1  8]
 [ 4 15  7 12]
 [ 6 15 15 12]
 [15  9  6 15]
 [13 15 15 15]
 [15 15 15 11]
 [15 15 11 15]
 [15  1 15  3]], 

=11 

=16 

=12 d2 d2

[debug] move action_id=297, action=((6, 3), (6, 3)), 
[debug] current_player=0 (R), 
[debug] board[(6, 3)]=13, board[(6, 3)]=13, 
[debug] board state:
[[15  3  1  8]
 [ 4 15  7 12]
 [ 6 15 15 12]
 [15  9  6 15]
 [13 15 15 15]
 [15 15 15 11]
 [15 15 11 13]
 [15  1 15  3]], 

=11 

=16 

[debug] move action_id=264, action=((6, 0), (6, 0)), 
[debug] current_player=1 (B), 
[debug] board[(6, 0)]=10, board[(6, 0)]=10, 
[debug] board state:
[[15  3  1  8]
 [ 4 15  7 12]
 [ 6 15 15 12]
 [15  9  6 15]
 [13 15 15 15]
 [15 15 15 11]
 [10 15 11 13]
 [15  1 15  3]], 

=11 

=16 

=12 a5 a5

[debug] move action_id=132, action=((3, 0), (3, 0)), 
[debug] current_player=0 (R), 
[debug] board[(3, 0)]=0, board[(3, 0)]=0, 
[debug] board state:
[[15  3  1  8]
 [ 4 15  7 12]
 [ 6 15 15 12]
 [ 0  9  6 15]
 [13 15 15 15]
 [15 15 15 11]
 [10 15 11 13]
 [15  1 15  3]], 

=11 

=16 

[debug] move action_id=275, action=((6, 1), (6, 1)), 
[debug] current_player=1 (B), 
[debug] board[(6, 1)]=13, board[(6, 1)]=13, 
[debug] board state:
[[15  3  1  8]
 [ 4 15  7 12]
 [ 6 15 15 12]
 [ 0  9  6 15]
 [13 15 15 15]
 [15 15 15 11]
 [10 13 11 13]
 [15  1 15  3]], 

=11 

=16 

=12 c1 c1

[debug] move action_id=330, action=((7, 2), (7, 2)), 
[debug] current_player=0 (R), 
[debug] board[(7, 2)]=13, board[(7, 2)]=13, 
[debug] board state:
[[15  3  1  8]
 [ 4 15  7 12]
 [ 6 15 15 12]
 [ 0  9  6 15]
 [13 15 15 15]
 [15 15 15 11]
 [10 13 11 13]
 [15  1 13  3]], 

=11 

=16 

[debug] move action_id=242, action=((5, 2), (5, 2)), 
[debug] current_player=1 (B), 
[debug] board[(5, 2)]=9, board[(5, 2)]=9, 
[debug] board state:
[[15  3  1  8]
 [ 4 15  7 12]
 [ 6 15 15 12]
 [ 0  9  6 15]
 [13 15 15 15]
 [15 15  9 11]
 [10 13 11 13]
 [15  1 13  3]], 

=11 

=16 

=12 d5 d5

[debug] move action_id=165, action=((3, 3), (3, 3)), 
[debug] current_player=0 (R), 
[debug] board[(3, 3)]=8, board[(3, 3)]=8, 
[debug] board state:
[[15  3  1  8]
 [ 4 15  7 12]
 [ 6 15 15 12]
 [ 0  9  6  8]
 [13 15 15 15]
 [15 15  9 11]
 [10 13 11 13]
 [15  1 13  3]], 

=11 

=16 

[debug] move action_id=0, action=((0, 0), (0, 0)), 
[debug] current_player=1 (B), 
[debug] board[(0, 0)]=5, board[(0, 0)]=5, 
[debug] board state:
[[ 5  3  1  8]
 [ 4 15  7 12]
 [ 6 15 15 12]
 [ 0  9  6  8]
 [13 15 15 15]
 [15 15  9 11]
 [10 13 11 13]
 [15  1 13  3]], 

=11 

=16 

=12 a1 a1

[debug] move action_id=308, action=((7, 0), (7, 0)), 
[debug] current_player=0 (R), 
[debug] board[(7, 0)]=4, board[(7, 0)]=4, 
[debug] board state:
[[ 5  3  1  8]
 [ 4 15  7 12]
 [ 6 15 15 12]
 [ 0  9  6  8]
 [13 15 15 15]
 [15 15  9 11]
 [10 13 11 13]
 [ 4  1 13  3]], 

=11 

=16 

[debug] move action_id=231, action=((5, 1), (5, 1)), 
[debug] current_player=1 (B), 
[debug] board[(5, 1)]=2, board[(5, 1)]=2, 
[debug] board state:
[[ 5  3  1  8]
 [ 4 15  7 12]
 [ 6 15 15 12]
 [ 0  9  6  8]
 [13 15 15 15]
 [15  2  9 11]
 [10 13 11 13]
 [ 4  1 13  3]], 

=11 

=16 

=12 d4 d4

[debug] move action_id=209, action=((4, 3), (4, 3)), 
[debug] current_player=0 (R), 
[debug] board[(4, 3)]=5, board[(4, 3)]=5, 
[debug] board state:
[[ 5  3  1  8]
 [ 4 15  7 12]
 [ 6 15 15 12]
 [ 0  9  6  8]
 [13 15 15  5]
 [15  2  9 11]
 [10 13 11 13]
 [ 4  1 13  3]], 

=11 

=16 

[debug] move action_id=99, action=((2, 1), (2, 1)), 
[debug] current_player=1 (B), 
[debug] board[(2, 1)]=10, board[(2, 1)]=10, 
[debug] board state:
[[ 5  3  1  8]
 [ 4 15  7 12]
 [ 6 10 15 12]
 [ 0  9  6  8]
 [13 15 15  5]
 [15  2  9 11]
 [10 13 11 13]
 [ 4  1 13  3]], 

=11 

=16 

=12 c4 c4

[debug] move action_id=198, action=((4, 2), (4, 2)), 
[debug] current_player=0 (R), 
[debug] board[(4, 2)]=6, board[(4, 2)]=6, 
[debug] board state:
[[ 5  3  1  8]
 [ 4 15  7 12]
 [ 6 10 15 12]
 [ 0  9  6  8]
 [13 15  6  5]
 [15  2  9 11]
 [10 13 11 13]
 [ 4  1 13  3]], 

=11 

=16 

[debug] move action_id=110, action=((2, 2), (2, 2)), 
[debug] current_player=1 (B), 
[debug] board[(2, 2)]=6, board[(2, 2)]=6, 
[debug] board state:
[[ 5  3  1  8]
 [ 4 15  7 12]
 [ 6 10  6 12]
 [ 0  9  6  8]
 [13 15  6  5]
 [15  2  9 11]
 [10 13 11 13]
 [ 4  1 13  3]], 

=11 

=16 

=12 a3 a3

[debug] move action_id=220, action=((5, 0), (5, 0)), 
[debug] current_player=0 (R), 
[debug] board[(5, 0)]=13, board[(5, 0)]=13, 
[debug] board state:
[[ 5  3  1  8]
 [ 4 15  7 12]
 [ 6 10  6 12]
 [ 0  9  6  8]
 [13 15  6  5]
 [13  2  9 11]
 [10 13 11 13]
 [ 4  1 13  3]], 

=11 

=16 

[debug] move action_id=187, action=((4, 1), (4, 1)), 
[debug] current_player=1 (B), 
[debug] board[(4, 1)]=2, board[(4, 1)]=2, 
[debug] board state:
[[ 5  3  1  8]
 [ 4 15  7 12]
 [ 6 10  6 12]
 [ 0  9  6  8]
 [13  2  6  5]
 [13  2  9 11]
 [10 13 11 13]
 [ 4  1 13  3]], 

=11 

=16 

=12 d5 d4

[debug] move action_id=213, action=((3, 3), (4, 3)), 
[debug] current_player=0 (R), 
[debug] board[(3, 3)]=14, board[(4, 3)]=8, 
[debug] board state:
[[ 5  3  1  8]
 [ 4 15  7 12]
 [ 6 10  6 12]
 [ 0  9  6 14]
 [13  2  6  8]
 [13  2  9 11]
 [10 13 11 13]
 [ 4  1 13  3]], 

=10 

=16 

[debug] move action_id=55, action=((1, 1), (1, 1)), 
[debug] current_player=1 (B), 
[debug] board[(1, 1)]=6, board[(1, 1)]=6, 
[debug] board state:
[[ 5  3  1  8]
 [ 4  6  7 12]
 [ 6 10  6 12]
 [ 0  9  6 14]
 [13  2  6  8]
 [13  2  9 11]
 [10 13 11 13]
 [ 4  1 13  3]], 

=11 

=16 

=12 d4 d5

[debug] move action_id=169, action=((4, 3), (3, 3)), 
[debug] current_player=0 (R), 
[debug] board[(4, 3)]=14, board[(3, 3)]=8, 
[debug] board state:
[[ 5  3  1  8]
 [ 4  6  7 12]
 [ 6 10  6 12]
 [ 0  9  6  8]
 [13  2  6 14]
 [13  2  9 11]
 [10 13 11 13]
 [ 4  1 13  3]], 

=10 

=16 

[debug] move action_id=239, action=((5, 1), (5, 0)), 
[debug] current_player=1 (B), 
[debug] board[(5, 1)]=14, board[(5, 0)]=2, 
[debug] board state:
[[ 5  3  1  8]
 [ 4  6  7 12]
 [ 6 10  6 12]
 [ 0  9  6  8]
 [13  2  6 14]
 [ 2 14  9 11]
 [10 13 11 13]
 [ 4  1 13  3]], 

=10 

=16 

=12 c3 b3

[debug] move action_id=251, action=((5, 2), (5, 1)), 
[debug] current_player=0 (R), 
[debug] board[(5, 2)]=14, board[(5, 1)]=9, 
[debug] board state:
[[ 5  3  1  8]
 [ 4  6  7 12]
 [ 6 10  6 12]
 [ 0  9  6  8]
 [13  2  6 14]
 [ 2  9 14 11]
 [10 13 11 13]
 [ 4  1 13  3]], 

=10 

=16 

[debug] move action_id=247, action=((4, 2), (5, 2)), 
[debug] current_player=1 (B), 
[debug] board[(4, 2)]=14, board[(5, 2)]=6, 
[debug] board state:
[[ 5  3  1  8]
 [ 4  6  7 12]
 [ 6 10  6 12]
 [ 0  9  6  8]
 [13  2 14 14]
 [ 2  9  6 11]
 [10 13 11 13]
 [ 4  1 13  3]], 

=10 

=16 

=12 d3 d4

[debug] move action_id=214, action=((5, 3), (4, 3)), 
[debug] current_player=0 (R), 
[debug] board[(5, 3)]=14, board[(4, 3)]=11, 
[debug] board state:
[[ 5  3  1  8]
 [ 4  6  7 12]
 [ 6 10  6 12]
 [ 0  9  6  8]
 [13  2 14 11]
 [ 2  9  6 14]
 [10 13 11 13]
 [ 4  1 13  3]], 

=10 

=16 

[debug] move action_id=196, action=((4, 1), (4, 2)), 
[debug] current_player=1 (B), 
[debug] board[(4, 1)]=14, board[(4, 2)]=2, 
[debug] board state:
[[ 5  3  1  8]
 [ 4  6  7 12]
 [ 6 10  6 12]
 [ 0  9  6  8]
 [13 14  2 11]
 [ 2  9  6 14]
 [10 13 11 13]
 [ 4  1 13  3]], 

=10 

=16 

=12 b3 b4

[debug] move action_id=192, action=((5, 1), (4, 1)), 
[debug] current_player=0 (R), 
[debug] board[(5, 1)]=14, board[(4, 1)]=9, 
[debug] board state:
[[ 5  3  1  8]
 [ 4  6  7 12]
 [ 6 10  6 12]
 [ 0  9  6  8]
 [13  9  2 11]
 [ 2 14  6 14]
 [10 13 11 13]
 [ 4  1 13  3]], 

=10 

=16 

[debug] move action_id=68, action=((2, 2), (1, 2)), 
[debug] current_player=1 (B), 
[debug] board[(2, 2)]=14, board[(1, 2)]=6, 
[debug] board state:
[[ 5  3  1  8]
 [ 4  6  6 12]
 [ 6 10 14 12]
 [ 0  9  6  8]
 [13  9  2 11]
 [ 2 14  6 14]
 [10 13 11 13]
 [ 4  1 13  3]], 

=10 

=16 

=12 d2 d3

[debug] move action_id=259, action=((6, 3), (5, 3)), 
[debug] current_player=0 (R), 
[debug] board[(6, 3)]=14, board[(5, 3)]=13, 
[debug] board state:
[[ 5  3  1  8]
 [ 4  6  6 12]
 [ 6 10 14 12]
 [ 0  9  6  8]
 [13  9  2 11]
 [ 2 14  6 13]
 [10 13 11 14]
 [ 4  1 13  3]], 

=10 

=16 

[debug] move action_id=304, action=((7, 3), (6, 3)), 
[debug] current_player=1 (B), 
[debug] board[(7, 3)]=14, board[(6, 3)]=3, 
[debug] board state:
[[ 5  3  1  8]
 [ 4  6  6 12]
 [ 6 10 14 12]
 [ 0  9  6  8]
 [13  9  2 11]
 [ 2 14  6 13]
 [10 13 11  3]
 [ 4  1 13 14]], 

=10 

=16 

=12 b6 c6

[debug] move action_id=108, action=((2, 1), (2, 2)), 
[debug] current_player=0 (R), 
[debug] board[(2, 1)]=14, board[(2, 2)]=10, 
[debug] board state:
[[ 5  3  1  8]
 [ 4  6  6 12]
 [ 6 14 10 12]
 [ 0  9  6  8]
 [13  9  2 11]
 [ 2 14  6 13]
 [10 13 11  3]
 [ 4  1 13 14]], 

=10 

=16 

[debug] move action_id=251, action=((5, 2), (5, 1)), 
[debug] current_player=1 (B), 
[debug] board[(5, 2)]=14, board[(5, 1)]=6, 
[debug] board state:
[[ 5  3  1  8]
 [ 4  6  6 12]
 [ 6 14 10 12]
 [ 0  9  6  8]
 [13  9  2 11]
 [ 2  6 14 13]
 [10 13 11  3]
 [ 4  1 13 14]], 

=10 

=16 

=12 c1 d1

[debug] move action_id=340, action=((7, 2), (7, 3)), 
[debug] current_player=0 (R), 
[debug] board[(7, 2)]=14, board[(7, 3)]=13, 
[debug] board state:
[[ 5  3  1  8]
 [ 4  6  6 12]
 [ 6 14 10 12]
 [ 0  9  6  8]
 [13  9  2 11]
 [ 2  6 14 13]
 [10 13 11  3]
 [ 4  1 14 13]], 

=10 

=16 

[debug] move action_id=247, action=((4, 2), (5, 2)), 
[debug] current_player=1 (B), 
[debug] board[(4, 2)]=14, board[(5, 2)]=2, 
[debug] board state:
[[ 5  3  1  8]
 [ 4  6  6 12]
 [ 6 14 10 12]
 [ 0  9  6  8]
 [13  9 14 11]
 [ 2  6  2 13]
 [10 13 11  3]
 [ 4  1 14 13]], 

=10 

=16 

=12 d1 c1

[debug] move action_id=351, action=((7, 3), (7, 2)), 
[debug] current_player=0 (R), 
[debug] board[(7, 3)]=14, board[(7, 2)]=13, 
[debug] board state:
[[ 5  3  1  8]
 [ 4  6  6 12]
 [ 6 14 10 12]
 [ 0  9  6  8]
 [13  9 14 11]
 [ 2  6  2 13]
 [10 13 11  3]
 [ 4  1 13 14]], 

=10 

=16 

[debug] move action_id=203, action=((5, 2), (4, 2)), 
[debug] current_player=1 (B), 
[debug] board[(5, 2)]=14, board[(4, 2)]=2, 
[debug] board state:
[[ 5  3  1  8]
 [ 4  6  6 12]
 [ 6 14 10 12]
 [ 0  9  6  8]
 [13  9  2 11]
 [ 2  6 14 13]
 [10 13 11  3]
 [ 4  1 13 14]], 

=10 

=16 

=12 d3 c3

[debug] move action_id=263, action=((5, 3), (5, 2)), 
[debug] current_player=0 (R), 
[debug] board[(5, 3)]=14, board[(5, 2)]=13, 
[debug] board state:
[[ 5  3  1  8]
 [ 4  6  6 12]
 [ 6 14 10 12]
 [ 0  9  6  8]
 [13  9  2 11]
 [ 2  6 13 14]
 [10 13 11  3]
 [ 4  1 13 14]], 

=10 

=16 

[debug] move action_id=282, action=((7, 1), (6, 1)), 
[debug] current_player=1 (B), 
[debug] board[(7, 1)]=14, board[(6, 1)]=1, 
[debug] board state:
[[ 5  3  1  8]
 [ 4  6  6 12]
 [ 6 14 10 12]
 [ 0  9  6  8]
 [13  9  2 11]
 [ 2  6 13 14]
 [10  1 11  3]
 [ 4 14 13 14]], 

=10 

=16 

=12 c1 b1

[debug] move action_id=339, action=((7, 2), (7, 1)), 
[debug] current_player=0 (R), 
[debug] board[(7, 2)]=14, board[(7, 1)]=13, 
[debug] board state:
[[ 5  3  1  8]
 [ 4  6  6 12]
 [ 6 14 10 12]
 [ 0  9  6  8]
 [13  9  2 11]
 [ 2  6 13 14]
 [10  1 11  3]
 [ 4 13 14 14]], 

=10 

=16 

[debug] move action_id=208, action=((4, 2), (4, 3)), 
[debug] current_player=1 (B), 
[debug] board[(4, 2)]=14, board[(4, 3)]=2, 
[debug] board state:
[[ 5  3  1  8]
 [ 4  6  6 12]
 [ 6 14 10 12]
 [ 0  9  6  8]
 [13  9 14  2]
 [ 2  6 13 14]
 [10  1 11  3]
 [ 4 13 14 14]], 

=10 

=16 

=12 b4 c4

[debug] move action_id=196, action=((4, 1), (4, 2)), 
[debug] current_player=0 (R), 
[debug] board[(4, 1)]=14, board[(4, 2)]=9, 
[debug] board state:
[[ 5  3  1  8]
 [ 4  6  6 12]
 [ 6 14 10 12]
 [ 0  9  6  8]
 [13 14  9  2]
 [ 2  6 13 14]
 [10  1 11  3]
 [ 4 13 14 14]], 

=10 

=16 

[debug] move action_id=316, action=((7, 0), (7, 1)), 
[debug] current_player=1 (B), 
[debug] board[(7, 0)]=14, board[(7, 1)]=4, 
[debug] board state:
[[ 5  3  1  8]
 [ 4  6  6 12]
 [ 6 14 10 12]
 [ 0  9  6  8]
 [13 14  9  2]
 [ 2  6 13 14]
 [10  1 11  3]
 [14  4 14 14]], 

=10 

=16 

=12 c2 c1

[debug] move action_id=337, action=((6, 2), (7, 2)), 
[debug] current_player=0 (R), 
[debug] board[(6, 2)]=14, board[(7, 2)]=11, 
[debug] board state:
[[ 5  3  1  8]
 [ 4  6  6 12]
 [ 6 14 10 12]
 [ 0  9  6  8]
 [13 14  9  2]
 [ 2  6 13 14]
 [10  1 14  3]
 [14  4 11 14]], 

=10 

=16 

[debug] move action_id=284, action=((6, 1), (6, 2)), 
[debug] current_player=1 (B), 
[debug] board[(6, 1)]=14, board[(6, 2)]=1, 
[debug] board state:
[[ 5  3  1  8]
 [ 4  6  6 12]
 [ 6 14 10 12]
 [ 0  9  6  8]
 [13 14  9  2]
 [ 2  6 13 14]
 [10 14  1  3]
 [14  4 11 14]], 

=10 

=16 

=12 a2 b2

[debug] move action_id=272, action=((6, 0), (6, 1)), 
[debug] current_player=0 (R), 
[debug] board[(6, 0)]=14, board[(6, 1)]=10, 
[debug] board state:
[[ 5  3  1  8]
 [ 4  6  6 12]
 [ 6 14 10 12]
 [ 0  9  6  8]
 [13 14  9  2]
 [ 2  6 13 14]
 [14 10  1  3]
 [14  4 11 14]], 

=10 

=16 

[debug] move action_id=270, action=((5, 0), (6, 0)), 
[debug] current_player=1 (B), 
[debug] board[(5, 0)]=14, board[(6, 0)]=2, 
[debug] board state:
[[ 5  3  1  8]
 [ 4  6  6 12]
 [ 6 14 10 12]
 [ 0  9  6  8]
 [13 14  9  2]
 [14  6 13 14]
 [ 2 10  1  3]
