INITIAL
* 7:38pm Feb 18, 2026
* a0_mu vs a1_lightzero
* 1 2 2 2 2 2 5 1 2 2 2 2 2 5
* X X X X
* X X X X
* X X X X
* X X X X
* X X X X
* X X X X
* X X X X
* X X X X
* first 1
* time 900
* 1. b1(m) b8(n)
* 2. c7(P) a4(r)
* 3. a6(c) d3(p)
* 4. b5(p) b2(K)
* 5. d6(N) d5(C)
* 6. a5(g) b6(G)
* 7. a7(P) d7(G)
* 8. c8(k) d1(M)
* 9. a3(p) c6(M)
* 10. c2(P) a2(P)
* 11. d8(P) c4(C)
* 12. c3(g) b3(p)
* 13. d2(r) d4(n)
* 14. c5(R) b4(p)
* 15. a8(c) a1(N)
* 16. b7(R) b6-a6
* 17. c1(m) a6-b6
* 18. c1-c2 d1-c1
* 19. b1-a1 c1-d1
* 20. a1-b1 d1-c1
* 21. b1-a1 c1-b1
* 22. a1-a2 b1-c1
* 23. a2-a1 c1-b1
* 24. a1-a2 b1-a1
* 25. a5-a6 a1-b1
* 26. a2-a1 b2-a2
* 27. a6-a5 b1-b2
* 28. a1-b1 a2-a1
* 29. b1-c1 a1-b1
* 30. c1-d1 b2-a2
* 31. a5-a6 a2-a1
* 32. a6-a5 b1-c1
* 33. c2-b2 a1-b1
* 34. c3-c2 b1-a1
* 35. c2-c3 a1-b1
* 36. c3-c2 b1-a1
* 37. c2-c3 a1-b1
* 38. c3-c2 b1-a1
* 39. c2-c3
* PositionRepetitionDraw,3,4 a0_mu Draw 0.500000,0.500000
* Comment 0 0
0. 1771414683318
1. 1771414683318
2. 1771414684504
3. 1771414685461
4. 1771414686409
5. 1771414687364
6. 1771414688364
7. 1771414689317
8. 1771414690269
9. 1771414691219
10. 1771414692224
11. 1771414693171
12. 1771414694179
13. 1771414695124
14. 1771414696134
15. 1771414697078
16. 1771414698089
17. 1771414699081
18. 1771414700093
19. 1771414701085
20. 1771414702098
21. 1771414703087
22. 1771414704101
23. 1771414705090
24. 1771414706104
25. 1771414707143
26. 1771414708158
27. 1771414709145
28. 1771414710162
29. 1771414711198
30. 1771414712216
31. 1771414713202
32. 1771414714220
33. 1771414715204
34. 1771414716224
35. 1771414717209
36. 1771414718228
37. 1771414719264
38. 1771414720281
39. 1771414721266
40. 1771414722285
41. 1771414723270
42. 1771414724289
43. 1771414725273
44. 1771414726291
45. 1771414727326
46. 1771414728344
47. 1771414729378
48. 1771414730397
49. 1771414731431
50. 1771414732450
51. 1771414733434
52. 1771414734453
53. 1771414735485
54. 1771414736507
55. 1771414737488
56. 1771414738510
57. 1771414739490
58. 1771414740513
59. 1771414741492
60. 1771414742515
61. 1771414743495
62. 1771414744517
63. 1771414745497
64. 1771414746520
65. 1771414747499
66. 1771414748522
67. 1771414749501
68. 1771414750525
69. 1771414751554
70. 1771414752627
71. 1771414753607
72. 1771414754630
73. 1771414755611
74. 1771414756633
75. 1771414757614
76. 1771414758636
77. 1771414759617

# 10 27 29 63 65 99 101 135 137 171 173 207 209 243 245 279 281 315 317 351 353 387 389 423 425 459 461 495 497 531 533 567 569 603 605 639 641 675 677 711 713 747 749 783 785 819 821 855 857 891 893 927 929 963 965 999 1001 1035 1037 1071 1073 1107 1109 1143 1145 1179 1181 1215 1217 1251 1253 1287 1289 1323 1325 1359 1361 #
LightZero MGTP Interface Ready
=1 LightZero_DarkChess

=2 1.0.0

=7 

=15 

=14 

[debug] move action_id=319, action=((7, 1), (7, 1)), 
[debug] current_player=1 (R), 
[debug] board[(7, 1)]=9, board[(7, 1)]=9, 
[debug] board state:
[[15 15 15 15]
 [15 15 15 15]
 [15 15 15 15]
 [15 15 15 15]
 [15 15 15 15]
 [15 15 15 15]
 [15 15 15 15]
 [15  9 15 15]], 

=11 

=16 

=12 b8 b8

[debug] move action_id=11, action=((0, 1), (0, 1)), 
[debug] current_player=0 (B), 
[debug] board[(0, 1)]=11, board[(0, 1)]=11, 
[debug] board state:
[[15 11 15 15]
 [15 15 15 15]
 [15 15 15 15]
 [15 15 15 15]
 [15 15 15 15]
 [15 15 15 15]
 [15 15 15 15]
 [15  9 15 15]], 

=11 

=16 

[debug] move action_id=66, action=((1, 2), (1, 2)), 
[debug] current_player=1 (R), 
[debug] board[(1, 2)]=6, board[(1, 2)]=6, 
[debug] board state:
[[15 11 15 15]
 [15 15  6 15]
 [15 15 15 15]
 [15 15 15 15]
 [15 15 15 15]
 [15 15 15 15]
 [15 15 15 15]
 [15  9 15 15]], 

=11 

=16 

=12 a4 a4

[debug] move action_id=176, action=((4, 0), (4, 0)), 
[debug] current_player=0 (B), 
[debug] board[(4, 0)]=10, board[(4, 0)]=10, 
[debug] board state:
[[15 11 15 15]
 [15 15  6 15]
 [15 15 15 15]
 [15 15 15 15]
 [10 15 15 15]
 [15 15 15 15]
 [15 15 15 15]
 [15  9 15 15]], 

=11 

=16 

[debug] move action_id=88, action=((2, 0), (2, 0)), 
[debug] current_player=1 (R), 
[debug] board[(2, 0)]=12, board[(2, 0)]=12, 
[debug] board state:
[[15 11 15 15]
 [15 15  6 15]
 [12 15 15 15]
 [15 15 15 15]
 [10 15 15 15]
 [15 15 15 15]
 [15 15 15 15]
 [15  9 15 15]], 

=11 

=16 

=12 d3 d3

[debug] move action_id=253, action=((5, 3), (5, 3)), 
[debug] current_player=0 (B), 
[debug] board[(5, 3)]=13, board[(5, 3)]=13, 
[debug] board state:
[[15 11 15 15]
 [15 15  6 15]
 [12 15 15 15]
 [15 15 15 15]
 [10 15 15 15]
 [15 15 15 13]
 [15 15 15 15]
 [15  9 15 15]], 

=11 

=16 

[debug] move action_id=143, action=((3, 1), (3, 1)), 
[debug] current_player=1 (R), 
[debug] board[(3, 1)]=13, board[(3, 1)]=13, 
[debug] board state:
[[15 11 15 15]
 [15 15  6 15]
 [12 15 15 15]
 [15 13 15 15]
 [10 15 15 15]
 [15 15 15 13]
 [15 15 15 15]
 [15  9 15 15]], 

=11 

=16 

=12 b2 b2

[debug] move action_id=275, action=((6, 1), (6, 1)), 
[debug] current_player=0 (B), 
[debug] board[(6, 1)]=0, board[(6, 1)]=0, 
[debug] board state:
[[15 11 15 15]
 [15 15  6 15]
 [12 15 15 15]
 [15 13 15 15]
 [10 15 15 15]
 [15 15 15 13]
 [15  0 15 15]
 [15  9 15 15]], 

=11 

=16 

[debug] move action_id=121, action=((2, 3), (2, 3)), 
[debug] current_player=1 (R), 
[debug] board[(2, 3)]=4, board[(2, 3)]=4, 
[debug] board state:
[[15 11 15 15]
 [15 15  6 15]
 [12 15 15  4]
 [15 13 15 15]
 [10 15 15 15]
 [15 15 15 13]
 [15  0 15 15]
 [15  9 15 15]], 

=11 

=16 

=12 d5 d5

[debug] move action_id=165, action=((3, 3), (3, 3)), 
[debug] current_player=0 (B), 
[debug] board[(3, 3)]=5, board[(3, 3)]=5, 
[debug] board state:
[[15 11 15 15]
 [15 15  6 15]
 [12 15 15  4]
 [15 13 15  5]
 [10 15 15 15]
 [15 15 15 13]
 [15  0 15 15]
 [15  9 15 15]], 

=11 

=16 

[debug] move action_id=132, action=((3, 0), (3, 0)), 
[debug] current_player=1 (R), 
[debug] board[(3, 0)]=8, board[(3, 0)]=8, 
[debug] board state:
[[15 11 15 15]
 [15 15  6 15]
 [12 15 15  4]
 [ 8 13 15  5]
 [10 15 15 15]
 [15 15 15 13]
 [15  0 15 15]
 [15  9 15 15]], 

=11 

=16 

=12 b6 b6

[debug] move action_id=99, action=((2, 1), (2, 1)), 
[debug] current_player=0 (B), 
[debug] board[(2, 1)]=1, board[(2, 1)]=1, 
[debug] board state:
[[15 11 15 15]
 [15 15  6 15]
 [12  1 15  4]
 [ 8 13 15  5]
 [10 15 15 15]
 [15 15 15 13]
 [15  0 15 15]
 [15  9 15 15]], 

=11 

=16 

[debug] move action_id=44, action=((1, 0), (1, 0)), 
[debug] current_player=1 (R), 
[debug] board[(1, 0)]=6, board[(1, 0)]=6, 
[debug] board state:
[[15 11 15 15]
 [ 6 15  6 15]
 [12  1 15  4]
 [ 8 13 15  5]
 [10 15 15 15]
 [15 15 15 13]
 [15  0 15 15]
 [15  9 15 15]], 

=11 

=16 

=12 d7 d7

[debug] move action_id=77, action=((1, 3), (1, 3)), 
[debug] current_player=0 (B), 
[debug] board[(1, 3)]=1, board[(1, 3)]=1, 
[debug] board state:
[[15 11 15 15]
 [ 6 15  6  1]
 [12  1 15  4]
 [ 8 13 15  5]
 [10 15 15 15]
 [15 15 15 13]
 [15  0 15 15]
 [15  9 15 15]], 

=11 

=16 

[debug] move action_id=22, action=((0, 2), (0, 2)), 
[debug] current_player=1 (R), 
[debug] board[(0, 2)]=7, board[(0, 2)]=7, 
[debug] board state:
[[15 11  7 15]
 [ 6 15  6  1]
 [12  1 15  4]
 [ 8 13 15  5]
 [10 15 15 15]
 [15 15 15 13]
 [15  0 15 15]
 [15  9 15 15]], 

=11 

=16 

=12 d1 d1

[debug] move action_id=341, action=((7, 3), (7, 3)), 
[debug] current_player=0 (B), 
[debug] board[(7, 3)]=2, board[(7, 3)]=2, 
[debug] board state:
[[15 11  7 15]
 [ 6 15  6  1]
 [12  1 15  4]
 [ 8 13 15  5]
 [10 15 15 15]
 [15 15 15 13]
 [15  0 15 15]
 [15  9 15  2]], 

=11 

=16 

[debug] move action_id=220, action=((5, 0), (5, 0)), 
[debug] current_player=1 (R), 
[debug] board[(5, 0)]=13, board[(5, 0)]=13, 
[debug] board state:
[[15 11  7 15]
 [ 6 15  6  1]
 [12  1 15  4]
 [ 8 13 15  5]
 [10 15 15 15]
 [13 15 15 13]
 [15  0 15 15]
 [15  9 15  2]], 

=11 

=16 

=12 c6 c6

[debug] move action_id=110, action=((2, 2), (2, 2)), 
[debug] current_player=0 (B), 
[debug] board[(2, 2)]=2, board[(2, 2)]=2, 
[debug] board state:
[[15 11  7 15]
 [ 6 15  6  1]
 [12  1  2  4]
 [ 8 13 15  5]
 [10 15 15 15]
 [13 15 15 13]
 [15  0 15 15]
 [15  9 15  2]], 

=11 

=16 

[debug] move action_id=286, action=((6, 2), (6, 2)), 
[debug] current_player=1 (R), 
[debug] board[(6, 2)]=6, board[(6, 2)]=6, 
[debug] board state:
[[15 11  7 15]
 [ 6 15  6  1]
 [12  1  2  4]
 [ 8 13 15  5]
 [10 15 15 15]
 [13 15 15 13]
 [15  0  6 15]
 [15  9 15  2]], 

=11 

=16 

=12 a2 a2

[debug] move action_id=264, action=((6, 0), (6, 0)), 
[debug] current_player=0 (B), 
[debug] board[(6, 0)]=6, board[(6, 0)]=6, 
[debug] board state:
[[15 11  7 15]
 [ 6 15  6  1]
 [12  1  2  4]
 [ 8 13 15  5]
 [10 15 15 15]
 [13 15 15 13]
 [ 6  0  6 15]
 [15  9 15  2]], 

=11 

=16 

[debug] move action_id=33, action=((0, 3), (0, 3)), 
[debug] current_player=1 (R), 
[debug] board[(0, 3)]=6, board[(0, 3)]=6, 
[debug] board state:
[[15 11  7  6]
 [ 6 15  6  1]
 [12  1  2  4]
 [ 8 13 15  5]
 [10 15 15 15]
 [13 15 15 13]
 [ 6  0  6 15]
 [15  9 15  2]], 

=11 

=16 

=12 c4 c4

[debug] move action_id=198, action=((4, 2), (4, 2)), 
[debug] current_player=0 (B), 
[debug] board[(4, 2)]=5, board[(4, 2)]=5, 
[debug] board state:
[[15 11  7  6]
 [ 6 15  6  1]
 [12  1  2  4]
 [ 8 13 15  5]
 [10 15  5 15]
 [13 15 15 13]
 [ 6  0  6 15]
 [15  9 15  2]], 

=11 

=16 

[debug] move action_id=242, action=((5, 2), (5, 2)), 
[debug] current_player=1 (R), 
[debug] board[(5, 2)]=8, board[(5, 2)]=8, 
[debug] board state:
[[15 11  7  6]
 [ 6 15  6  1]
 [12  1  2  4]
 [ 8 13 15  5]
 [10 15  5 15]
 [13 15  8 13]
 [ 6  0  6 15]
 [15  9 15  2]], 

=11 

=16 

=12 b3 b3

[debug] move action_id=231, action=((5, 1), (5, 1)), 
[debug] current_player=0 (B), 
[debug] board[(5, 1)]=13, board[(5, 1)]=13, 
[debug] board state:
[[15 11  7  6]
 [ 6 15  6  1]
 [12  1  2  4]
 [ 8 13 15  5]
 [10 15  5 15]
 [13 13  8 13]
 [ 6  0  6 15]
 [15  9 15  2]], 

=11 

=16 

[debug] move action_id=297, action=((6, 3), (6, 3)), 
[debug] current_player=1 (R), 
[debug] board[(6, 3)]=10, board[(6, 3)]=10, 
[debug] board state:
[[15 11  7  6]
 [ 6 15  6  1]
 [12  1  2  4]
 [ 8 13 15  5]
 [10 15  5 15]
 [13 13  8 13]
 [ 6  0  6 10]
 [15  9 15  2]], 

=11 

=16 

=12 d4 d4

[debug] move action_id=209, action=((4, 3), (4, 3)), 
[debug] current_player=0 (B), 
[debug] board[(4, 3)]=11, board[(4, 3)]=11, 
[debug] board state:
[[15 11  7  6]
 [ 6 15  6  1]
 [12  1  2  4]
 [ 8 13 15  5]
 [10 15  5 11]
 [13 13  8 13]
 [ 6  0  6 10]
 [15  9 15  2]], 

=11 

=16 

[debug] move action_id=154, action=((3, 2), (3, 2)), 
[debug] current_player=1 (R), 
[debug] board[(3, 2)]=3, board[(3, 2)]=3, 
[debug] board state:
[[15 11  7  6]
 [ 6 15  6  1]
 [12  1  2  4]
 [ 8 13  3  5]
 [10 15  5 11]
 [13 13  8 13]
 [ 6  0  6 10]
 [15  9 15  2]], 

=11 

=16 

=12 b4 b4

[debug] move action_id=187, action=((4, 1), (4, 1)), 
[debug] current_player=0 (B), 
[debug] board[(4, 1)]=13, board[(4, 1)]=13, 
[debug] board state:
[[15 11  7  6]
 [ 6 15  6  1]
 [12  1  2  4]
 [ 8 13  3  5]
 [10 13  5 11]
 [13 13  8 13]
 [ 6  0  6 10]
 [15  9 15  2]], 

=11 

=16 

[debug] move action_id=0, action=((0, 0), (0, 0)), 
[debug] current_player=1 (R), 
[debug] board[(0, 0)]=12, board[(0, 0)]=12, 
[debug] board state:
[[12 11  7  6]
 [ 6 15  6  1]
 [12  1  2  4]
 [ 8 13  3  5]
 [10 13  5 11]
 [13 13  8 13]
 [ 6  0  6 10]
 [15  9 15  2]], 

=11 

=16 

=12 a1 a1

[debug] move action_id=308, action=((7, 0), (7, 0)), 
[debug] current_player=0 (B), 
[debug] board[(7, 0)]=4, board[(7, 0)]=4, 
[debug] board state:
[[12 11  7  6]
 [ 6 15  6  1]
 [12  1  2  4]
 [ 8 13  3  5]
 [10 13  5 11]
 [13 13  8 13]
 [ 6  0  6 10]
 [ 4  9 15  2]], 

=11 

=16 

[debug] move action_id=55, action=((1, 1), (1, 1)), 
[debug] current_player=1 (R), 
[debug] board[(1, 1)]=3, board[(1, 1)]=3, 
[debug] board state:
[[12 11  7  6]
 [ 6  3  6  1]
 [12  1  2  4]
 [ 8 13  3  5]
 [10 13  5 11]
 [13 13  8 13]
 [ 6  0  6 10]
 [ 4  9 15  2]], 

=11 

=16 

=12 b6 a6

[debug] move action_id=107, action=((2, 1), (2, 0)), 
[debug] current_player=0 (B), 
[debug] board[(2, 1)]=14, board[(2, 0)]=1, 
[debug] board state:
[[12 11  7  6]
 [ 6  3  6  1]
 [ 1 14  2  4]
 [ 8 13  3  5]
 [10 13  5 11]
 [13 13  8 13]
 [ 6  0  6 10]
 [ 4  9 15  2]], 

=10 

=16 

[debug] move action_id=330, action=((7, 2), (7, 2)), 
[debug] current_player=1 (R), 
[debug] board[(7, 2)]=9, board[(7, 2)]=9, 
[debug] board state:
[[12 11  7  6]
 [ 6  3  6  1]
 [ 1 14  2  4]
 [ 8 13  3  5]
 [10 13  5 11]
 [13 13  8 13]
 [ 6  0  6 10]
 [ 4  9  9  2]], 

=11 

=16 

=12 a6 b6

[debug] move action_id=96, action=((2, 0), (2, 1)), 
[debug] current_player=0 (B), 
[debug] board[(2, 0)]=14, board[(2, 1)]=1, 
[debug] board state:
[[12 11  7  6]
 [ 6  3  6  1]
 [14  1  2  4]
 [ 8 13  3  5]
 [10 13  5 11]
 [13 13  8 13]
 [ 6  0  6 10]
 [ 4  9  9  2]], 

=10 

=16 

[debug] move action_id=293, action=((7, 2), (6, 2)), 
[debug] current_player=1 (R), 
[debug] board[(7, 2)]=14, board[(6, 2)]=9, 
[debug] board state:
[[12 11  7  6]
 [ 6  3  6  1]
 [14  1  2  4]
 [ 8 13  3  5]
 [10 13  5 11]
 [13 13  8 13]
 [ 6  0  9 10]
 [ 4  9 14  2]], 

=10 

=16 

=12 d1 c1

[debug] move action_id=351, action=((7, 3), (7, 2)), 
[debug] current_player=0 (B), 
[debug] board[(7, 3)]=14, board[(7, 2)]=2, 
[debug] board state:
[[12 11  7  6]
 [ 6  3  6  1]
 [14  1  2  4]
 [ 8 13  3  5]
 [10 13  5 11]
 [13 13  8 13]
 [ 6  0  9 10]
 [ 4  9  2 14]], 

=10 

=16 

[debug] move action_id=327, action=((7, 1), (7, 0)), 
[debug] current_player=1 (R), 
[debug] board[(7, 1)]=14, board[(7, 0)]=9, 
[debug] board state:
[[12 11  7  6]
 [ 6  3  6  1]
 [14  1  2  4]
 [ 8 13  3  5]
 [10 13  5 11]
 [13 13  8 13]
 [ 6  0  9 10]
 [ 9 14  2 14]], 

=10 

=16 

=12 c1 d1

[debug] move action_id=340, action=((7, 2), (7, 3)), 
[debug] current_player=0 (B), 
[debug] board[(7, 2)]=14, board[(7, 3)]=2, 
[debug] board state:
[[12 11  7  6]
 [ 6  3  6  1]
 [14  1  2  4]
 [ 8 13  3  5]
 [10 13  5 11]
 [13 13  8 13]
 [ 6  0  9 10]
 [ 9 14 14  2]], 

=10 

=16 

[debug] move action_id=316, action=((7, 0), (7, 1)), 
[debug] current_player=1 (R), 
[debug] board[(7, 0)]=14, board[(7, 1)]=9, 
[debug] board state:
[[12 11  7  6]
 [ 6  3  6  1]
 [14  1  2  4]
 [ 8 13  3  5]
 [10 13  5 11]
 [13 13  8 13]
 [ 6  0  9 10]
 [14  9 14  2]], 

=10 

=16 

=12 d1 c1

[debug] move action_id=351, action=((7, 3), (7, 2)), 
[debug] current_player=0 (B), 
[debug] board[(7, 3)]=14, board[(7, 2)]=2, 
[debug] board state:
[[12 11  7  6]
 [ 6  3  6  1]
 [14  1  2  4]
 [ 8 13  3  5]
 [10 13  5 11]
 [13 13  8 13]
 [ 6  0  9 10]
 [14  9  2 14]], 

=10 

=16 

[debug] move action_id=327, action=((7, 1), (7, 0)), 
[debug] current_player=1 (R), 
[debug] board[(7, 1)]=14, board[(7, 0)]=9, 
[debug] board state:
[[12 11  7  6]
 [ 6  3  6  1]
 [14  1  2  4]
 [ 8 13  3  5]
 [10 13  5 11]
 [13 13  8 13]
 [ 6  0  9 10]
 [ 9 14  2 14]], 

=10 

=16 

=12 c1 b1

[debug] move action_id=339, action=((7, 2), (7, 1)), 
[debug] current_player=0 (B), 
[debug] board[(7, 2)]=14, board[(7, 1)]=2, 
[debug] board state:
[[12 11  7  6]
 [ 6  3  6  1]
 [14  1  2  4]
 [ 8 13  3  5]
 [10 13  5 11]
 [13 13  8 13]
 [ 6  0  9 10]
 [ 9  2 14 14]], 

=10 

=16 

[debug] move action_id=271, action=((7, 0), (6, 0)), 
[debug] current_player=1 (R), 
[debug] board[(7, 0)]=14, board[(6, 0)]=9, 
[debug] board state:
[[12 11  7  6]
 [ 6  3  6  1]
 [14  1  2  4]
 [ 8 13  3  5]
 [10 13  5 11]
 [13 13  8 13]
 [ 9  0  9 10]
 [14  2 14 14]], 

=10 

=16 

=12 b1 c1

[debug] move action_id=328, action=((7, 1), (7, 2)), 
[debug] current_player=0 (B), 
[debug] board[(7, 1)]=14, board[(7, 2)]=2, 
[debug] board state:
[[12 11  7  6]
 [ 6  3  6  1]
 [14  1  2  4]
 [ 8 13  3  5]
 [10 13  5 11]
 [13 13  8 13]
 [ 9  0  9 10]
 [14 14  2 14]], 

=10 

=16 

[debug] move action_id=315, action=((6, 0), (7, 0)), 
[debug] current_player=1 (R), 
[debug] board[(6, 0)]=14, board[(7, 0)]=9, 
[debug] board state:
[[12 11  7  6]
 [ 6  3  6  1]
 [14  1  2  4]
 [ 8 13  3  5]
 [10 13  5 11]
 [13 13  8 13]
 [14  0  9 10]
 [ 9 14  2 14]], 

=10 

=16 

=12 c1 b1

[debug] move action_id=339, action=((7, 2), (7, 1)), 
[debug] current_player=0 (B), 
[debug] board[(7, 2)]=14, board[(7, 1)]=2, 
[debug] board state:
[[12 11  7  6]
 [ 6  3  6  1]
 [14  1  2  4]
 [ 8 13  3  5]
 [10 13  5 11]
 [13 13  8 13]
 [14  0  9 10]
 [ 9  2 14 14]], 

=10 

=16 

[debug] move action_id=271, action=((7, 0), (6, 0)), 
[debug] current_player=1 (R), 
[debug] board[(7, 0)]=14, board[(6, 0)]=9, 
[debug] board state:
[[12 11  7  6]
 [ 6  3  6  1]
 [14  1  2  4]
 [ 8 13  3  5]
 [10 13  5 11]
 [13 13  8 13]
 [ 9  0  9 10]
 [14  2 14 14]], 

=10 

=16 

=12 b1 a1

[debug] move action_id=327, action=((7, 1), (7, 0)), 
[debug] current_player=0 (B), 
[debug] board[(7, 1)]=14, board[(7, 0)]=2, 
[debug] board state:
[[12 11  7  6]
 [ 6  3  6  1]
 [14  1  2  4]
 [ 8 13  3  5]
 [10 13  5 11]
 [13 13  8 13]
 [ 9  0  9 10]
 [ 2 14 14 14]], 

=10 

=16 

[debug] move action_id=91, action=((3, 0), (2, 0)), 
[debug] current_player=1 (R), 
[debug] board[(3, 0)]=14, board[(2, 0)]=8, 
[debug] board state:
[[12 11  7  6]
 [ 6  3  6  1]
 [ 8  1  2  4]
 [14 13  3  5]
 [10 13  5 11]
 [13 13  8 13]
 [ 9  0  9 10]
 [ 2 14 14 14]], 

=10 

=16 

=12 a1 b1

[debug] move action_id=316, action=((7, 0), (7, 1)), 
[debug] current_player=0 (B), 
[debug] board[(7, 0)]=14, board[(7, 1)]=2, 
[debug] board state:
[[12 11  7  6]
 [ 6  3  6  1]
 [ 8  1  2  4]
 [14 13  3  5]
 [10 13  5 11]
 [13 13  8 13]
 [ 9  0  9 10]
 [14  2 14 14]], 

=10 

=16 

[debug] move action_id=315, action=((6, 0), (7, 0)), 
[debug] current_player=1 (R), 
[debug] board[(6, 0)]=14, board[(7, 0)]=9, 
[debug] board state:
[[12 11  7  6]
 [ 6  3  6  1]
 [ 8  1  2  4]
 [14 13  3  5]
 [10 13  5 11]
 [13 13  8 13]
 [14  0  9 10]
 [ 9  2 14 14]], 

=10 

=16 

=12 b2 a2

[debug] move action_id=283, action=((6, 1), (6, 0)), 
[debug] current_player=0 (B), 
[debug] board[(6, 1)]=14, board[(6, 0)]=0, 
[debug] board state:
[[12 11  7  6]
 [ 6  3  6  1]
 [ 8  1  2  4]
 [14 13  3  5]
 [10 13  5 11]
 [13 13  8 13]
 [ 0 14  9 10]
 [ 9  2 14 14]], 

=10 

=16 

[debug] move action_id=135, action=((2, 0), (3, 0)), 
[debug] current_player=1 (R), 
[debug] board[(2, 0)]=14, board[(3, 0)]=8, 
[debug] board state:
[[12 11  7  6]
 [ 6  3  6  1]
 [14  1  2  4]
 [ 8 13  3  5]
 [10 13  5 11]
 [13 13  8 13]
 [ 0 14  9 10]
 [ 9  2 14 14]], 

=10 

=16 

=12 b1 b2

[debug] move action_id=282, action=((7, 1), (6, 1)), 
[debug] current_player=0 (B), 
[debug] board[(7, 1)]=14, board[(6, 1)]=2, 
[debug] board state:
[[12 11  7  6]
 [ 6  3  6  1]
 [14  1  2  4]
 [ 8 13  3  5]
 [10 13  5 11]
 [13 13  8 13]
 [ 0  2  9 10]
 [ 9 14 14 14]], 

=10 

=16 

[debug] move action_id=316, action=((7, 0), (7, 1)), 
[debug] current_player=1 (R), 
[debug] board[(7, 0)]=14, board[(7, 1)]=9, 
[debug] board state:
[[12 11  7  6]
 [ 6  3  6  1]
 [14  1  2  4]
 [ 8 13  3  5]
 [10 13  5 11]
 [13 13  8 13]
 [ 0  2  9 10]
 [14  9 14 14]], 

=10 

=16 

=12 a2 a1

[debug] move action_id=315, action=((6, 0), (7, 0)), 
[debug] current_player=0 (B), 
[debug] board[(6, 0)]=14, board[(7, 0)]=0, 
[debug] board state:
[[12 11  7  6]
 [ 6  3  6  1]
 [14  1  2  4]
 [ 8 13  3  5]
 [10 13  5 11]
 [13 13  8 13]
 [14  2  9 10]
 [ 0  9 14 14]], 

=10 

=16 

[debug] move action_id=328, action=((7, 1), (7, 2)), 
[debug] current_player=1 (R), 
[debug] board[(7, 1)]=14, board[(7, 2)]=9, 
[debug] board state:
[[12 11  7  6]
 [ 6  3  6  1]
 [14  1  2  4]
 [ 8 13  3  5]
 [10 13  5 11]
 [13 13  8 13]
 [14  2  9 10]
 [ 0 14  9 14]], 

=10 

=16 

=12 a1 b1

[debug] move action_id=316, action=((7, 0), (7, 1)), 
[debug] current_player=0 (B), 
[debug] board[(7, 0)]=14, board[(7, 1)]=0, 
[debug] board state:
[[12 11  7  6]
 [ 6  3  6  1]
 [14  1  2  4]
 [ 8 13  3  5]
 [10 13  5 11]
 [13 13  8 13]
 [14  2  9 10]
 [14  0  9 14]], 

=10 

=16 

[debug] move action_id=340, action=((7, 2), (7, 3)), 
[debug] current_player=1 (R), 
[debug] board[(7, 2)]=14, board[(7, 3)]=9, 
[debug] board state:
[[12 11  7  6]
 [ 6  3  6  1]
 [14  1  2  4]
 [ 8 13  3  5]
 [10 13  5 11]
 [13 13  8 13]
 [14  2  9 10]
 [14  0 14  9]], 

=10 

=16 

=12 b2 a2

[debug] move action_id=283, action=((6, 1), (6, 0)), 
