INITIAL
* 7:50pm Feb 18, 2026
* a1_lightzero vs a0_mu
* 1 2 2 2 2 2 5 1 2 2 2 2 2 5
* X X X X
* X X X X
* X X X X
* X X X X
* X X X X
* X X X X
* X X X X
* X X X X
* first 0
* time 900
* 1. b8(R) b1(m)
* 2. c7(p) a6(M)
* 3. d3(k) a5(g)
* 4. b2(p) b5(G)
* 5. d8(C) a4(n)
* 6. c5(r) d6(p)
* 7. d7(R) c8(p)
* 8. d1(p) a7(N)
* 9. d2(M) a3(g)
* 10. a1(c) b6(m)
* 11. d5(n) b3(c)
* 12. d4(C) c4(N)
* 13. a8(P) c1(K)
* 14. c2(r) b7(P)
* 15. b4(P) c3(P)
* 16. d7-d6 a2(P)
* 17. c6(G) d3-d4
* 18. d2-d3 d1-d2
* 19. c1-d1 a4-b4
* 20. d1-c1 a5-a4
* 21. c1-d1 b1-c1
* 22. b5-a5 b6-b5
* 23. c6-b6 a1-b1
* 24. d6-d7 c7-c6
* 25. d7-c7 c6-d6
* 26. d8-d7 b1-a1
* 27. d7-d8 a1-b1
* 28. d8-d7 b1-a1
* 29. d7-d8 a1-b1
* 30. d1-c1 d2-d1
* 31. d3-d2 b4-c4
* 32. d2-d3 d1-d2
* 33. c1-d1 b1-a1
* 34. d1-c1 a1-b1
* 35. c1-d1 b1-a1
* 36. d1-c1 a1-b1
* 37. c1-d1 b1-a1
* 38. d1-c1 a1-b1
* PositionRepetitionDraw,3,4 a1_lightzero Draw 0.500000,0.500000
* Comment 0 0
0. 1771415415492
1. 1771415415492
2. 1771415416626
3. 1771415417637
4. 1771415418631
5. 1771415419642
6. 1771415420636
7. 1771415421597
8. 1771415422541
9. 1771415423551
10. 1771415424496
11. 1771415425505
12. 1771415426451
13. 1771415427459
14. 1771415428407
15. 1771415429413
16. 1771415430362
17. 1771415431367
18. 1771415432317
19. 1771415433321
20. 1771415434272
21. 1771415435274
22. 1771415436228
23. 1771415437228
24. 1771415438233
25. 1771415439232
26. 1771415440188
27. 1771415441187
28. 1771415442143
29. 1771415443140
30. 1771415444098
31. 1771415445094
32. 1771415446103
33. 1771415447098
34. 1771415448058
35. 1771415449053
36. 1771415450013
37. 1771415451008
38. 1771415451968
39. 1771415452963
40. 1771415453924
41. 1771415454967
42. 1771415455929
43. 1771415456972
44. 1771415457934
45. 1771415458977
46. 1771415459938
47. 1771415460932
48. 1771415461892
49. 1771415462887
50. 1771415463846
51. 1771415464842
52. 1771415465800
53. 1771415466797
54. 1771415467754
55. 1771415468751
56. 1771415469708
57. 1771415470705
58. 1771415471662
59. 1771415472659
60. 1771415473617
61. 1771415474612
62. 1771415475622
63. 1771415476665
64. 1771415477627
65. 1771415478667
66. 1771415479631
67. 1771415480669
68. 1771415481685
69. 1771415482722
70. 1771415483688
71. 1771415484725
72. 1771415485692
73. 1771415486727
74. 1771415487746
75. 1771415488780
76. 1771415489749

# 10 12 46 48 82 84 118 120 154 156 190 192 226 228 262 264 298 300 334 336 370 372 406 408 442 444 478 480 514 516 550 552 586 588 622 624 658 660 694 696 730 732 766 768 802 804 838 840 874 876 910 912 946 948 982 984 1018 1020 1054 1056 1090 1092 1126 1128 1162 1164 1198 1200 1234 1236 1270 1272 1306 1308 1342 1344 #
LightZero MGTP Interface Ready
=1 LightZero_DarkChess

=2 1.0.0

=7 

=15 

=14 

=12 b8 b8

[debug] move action_id=11, action=((0, 1), (0, 1)), 
[debug] current_player=1 (B), 
[debug] board[(0, 1)]=3, board[(0, 1)]=3, 
[debug] board state:
[[15  3 15 15]
 [15 15 15 15]
 [15 15 15 15]
 [15 15 15 15]
 [15 15 15 15]
 [15 15 15 15]
 [15 15 15 15]
 [15 15 15 15]], 

=11 

=16 

[debug] move action_id=319, action=((7, 1), (7, 1)), 
[debug] current_player=0 (R), 
[debug] board[(7, 1)]=9, board[(7, 1)]=9, 
[debug] board state:
[[15  3 15 15]
 [15 15 15 15]
 [15 15 15 15]
 [15 15 15 15]
 [15 15 15 15]
 [15 15 15 15]
 [15 15 15 15]
 [15  9 15 15]], 

=11 

=16 

=12 c7 c7

[debug] move action_id=66, action=((1, 2), (1, 2)), 
[debug] current_player=1 (B), 
[debug] board[(1, 2)]=13, board[(1, 2)]=13, 
[debug] board state:
[[15  3 15 15]
 [15 15 13 15]
 [15 15 15 15]
 [15 15 15 15]
 [15 15 15 15]
 [15 15 15 15]
 [15 15 15 15]
 [15  9 15 15]], 

=11 

=16 

[debug] move action_id=88, action=((2, 0), (2, 0)), 
[debug] current_player=0 (R), 
[debug] board[(2, 0)]=2, board[(2, 0)]=2, 
[debug] board state:
[[15  3 15 15]
 [15 15 13 15]
 [ 2 15 15 15]
 [15 15 15 15]
 [15 15 15 15]
 [15 15 15 15]
 [15 15 15 15]
 [15  9 15 15]], 

=11 

=16 

=12 d3 d3

[debug] move action_id=253, action=((5, 3), (5, 3)), 
[debug] current_player=1 (B), 
[debug] board[(5, 3)]=7, board[(5, 3)]=7, 
[debug] board state:
[[15  3 15 15]
 [15 15 13 15]
 [ 2 15 15 15]
 [15 15 15 15]
 [15 15 15 15]
 [15 15 15  7]
 [15 15 15 15]
 [15  9 15 15]], 

=11 

=16 

[debug] move action_id=132, action=((3, 0), (3, 0)), 
[debug] current_player=0 (R), 
[debug] board[(3, 0)]=8, board[(3, 0)]=8, 
[debug] board state:
[[15  3 15 15]
 [15 15 13 15]
 [ 2 15 15 15]
 [ 8 15 15 15]
 [15 15 15 15]
 [15 15 15  7]
 [15 15 15 15]
 [15  9 15 15]], 

=11 

=16 

=12 b2 b2

[debug] move action_id=275, action=((6, 1), (6, 1)), 
[debug] current_player=1 (B), 
[debug] board[(6, 1)]=13, board[(6, 1)]=13, 
[debug] board state:
[[15  3 15 15]
 [15 15 13 15]
 [ 2 15 15 15]
 [ 8 15 15 15]
 [15 15 15 15]
 [15 15 15  7]
 [15 13 15 15]
 [15  9 15 15]], 

=11 

=16 

[debug] move action_id=143, action=((3, 1), (3, 1)), 
[debug] current_player=0 (R), 
[debug] board[(3, 1)]=1, board[(3, 1)]=1, 
[debug] board state:
[[15  3 15 15]
 [15 15 13 15]
 [ 2 15 15 15]
 [ 8  1 15 15]
 [15 15 15 15]
 [15 15 15  7]
 [15 13 15 15]
 [15  9 15 15]], 

=11 

=16 

=12 d8 d8

[debug] move action_id=33, action=((0, 3), (0, 3)), 
[debug] current_player=1 (B), 
[debug] board[(0, 3)]=5, board[(0, 3)]=5, 
[debug] board state:
[[15  3 15  5]
 [15 15 13 15]
 [ 2 15 15 15]
 [ 8  1 15 15]
 [15 15 15 15]
 [15 15 15  7]
 [15 13 15 15]
 [15  9 15 15]], 

=11 

=16 

[debug] move action_id=176, action=((4, 0), (4, 0)), 
[debug] current_player=0 (R), 
[debug] board[(4, 0)]=11, board[(4, 0)]=11, 
[debug] board state:
[[15  3 15  5]
 [15 15 13 15]
 [ 2 15 15 15]
 [ 8  1 15 15]
 [11 15 15 15]
 [15 15 15  7]
 [15 13 15 15]
 [15  9 15 15]], 

=11 

=16 

=12 c5 c5

[debug] move action_id=154, action=((3, 2), (3, 2)), 
[debug] current_player=1 (B), 
[debug] board[(3, 2)]=10, board[(3, 2)]=10, 
[debug] board state:
[[15  3 15  5]
 [15 15 13 15]
 [ 2 15 15 15]
 [ 8  1 10 15]
 [11 15 15 15]
 [15 15 15  7]
 [15 13 15 15]
 [15  9 15 15]], 

=11 

=16 

[debug] move action_id=121, action=((2, 3), (2, 3)), 
[debug] current_player=0 (R), 
[debug] board[(2, 3)]=13, board[(2, 3)]=13, 
[debug] board state:
[[15  3 15  5]
 [15 15 13 15]
 [ 2 15 15 13]
 [ 8  1 10 15]
 [11 15 15 15]
 [15 15 15  7]
 [15 13 15 15]
 [15  9 15 15]], 

=11 

=16 

=12 d7 d7

[debug] move action_id=77, action=((1, 3), (1, 3)), 
[debug] current_player=1 (B), 
[debug] board[(1, 3)]=3, board[(1, 3)]=3, 
[debug] board state:
[[15  3 15  5]
 [15 15 13  3]
 [ 2 15 15 13]
 [ 8  1 10 15]
 [11 15 15 15]
 [15 15 15  7]
 [15 13 15 15]
 [15  9 15 15]], 

=11 

=16 

[debug] move action_id=22, action=((0, 2), (0, 2)), 
[debug] current_player=0 (R), 
[debug] board[(0, 2)]=13, board[(0, 2)]=13, 
[debug] board state:
[[15  3 13  5]
 [15 15 13  3]
 [ 2 15 15 13]
 [ 8  1 10 15]
 [11 15 15 15]
 [15 15 15  7]
 [15 13 15 15]
 [15  9 15 15]], 

=11 

=16 

=12 d1 d1

[debug] move action_id=341, action=((7, 3), (7, 3)), 
[debug] current_player=1 (B), 
[debug] board[(7, 3)]=13, board[(7, 3)]=13, 
[debug] board state:
[[15  3 13  5]
 [15 15 13  3]
 [ 2 15 15 13]
 [ 8  1 10 15]
 [11 15 15 15]
 [15 15 15  7]
 [15 13 15 15]
 [15  9 15 13]], 

=11 

=16 

[debug] move action_id=44, action=((1, 0), (1, 0)), 
[debug] current_player=0 (R), 
[debug] board[(1, 0)]=4, board[(1, 0)]=4, 
[debug] board state:
[[15  3 13  5]
 [ 4 15 13  3]
 [ 2 15 15 13]
 [ 8  1 10 15]
 [11 15 15 15]
 [15 15 15  7]
 [15 13 15 15]
 [15  9 15 13]], 

=11 

=16 

=12 d2 d2

[debug] move action_id=297, action=((6, 3), (6, 3)), 
[debug] current_player=1 (B), 
[debug] board[(6, 3)]=2, board[(6, 3)]=2, 
[debug] board state:
[[15  3 13  5]
 [ 4 15 13  3]
 [ 2 15 15 13]
 [ 8  1 10 15]
 [11 15 15 15]
 [15 15 15  7]
 [15 13 15  2]
 [15  9 15 13]], 

=11 

=16 

[debug] move action_id=220, action=((5, 0), (5, 0)), 
[debug] current_player=0 (R), 
[debug] board[(5, 0)]=8, board[(5, 0)]=8, 
[debug] board state:
[[15  3 13  5]
 [ 4 15 13  3]
 [ 2 15 15 13]
 [ 8  1 10 15]
 [11 15 15 15]
 [ 8 15 15  7]
 [15 13 15  2]
 [15  9 15 13]], 

=11 

=16 

=12 a1 a1

[debug] move action_id=308, action=((7, 0), (7, 0)), 
[debug] current_player=1 (B), 
[debug] board[(7, 0)]=12, board[(7, 0)]=12, 
[debug] board state:
[[15  3 13  5]
 [ 4 15 13  3]
 [ 2 15 15 13]
 [ 8  1 10 15]
 [11 15 15 15]
 [ 8 15 15  7]
 [15 13 15  2]
 [12  9 15 13]], 

=11 

=16 

[debug] move action_id=99, action=((2, 1), (2, 1)), 
[debug] current_player=0 (R), 
[debug] board[(2, 1)]=9, board[(2, 1)]=9, 
[debug] board state:
[[15  3 13  5]
 [ 4 15 13  3]
 [ 2  9 15 13]
 [ 8  1 10 15]
 [11 15 15 15]
 [ 8 15 15  7]
 [15 13 15  2]
 [12  9 15 13]], 

=11 

=16 

=12 d5 d5

[debug] move action_id=165, action=((3, 3), (3, 3)), 
[debug] current_player=1 (B), 
[debug] board[(3, 3)]=11, board[(3, 3)]=11, 
[debug] board state:
[[15  3 13  5]
 [ 4 15 13  3]
 [ 2  9 15 13]
 [ 8  1 10 11]
 [11 15 15 15]
 [ 8 15 15  7]
 [15 13 15  2]
 [12  9 15 13]], 

=11 

=16 

[debug] move action_id=231, action=((5, 1), (5, 1)), 
[debug] current_player=0 (R), 
[debug] board[(5, 1)]=12, board[(5, 1)]=12, 
[debug] board state:
[[15  3 13  5]
 [ 4 15 13  3]
 [ 2  9 15 13]
 [ 8  1 10 11]
 [11 15 15 15]
 [ 8 12 15  7]
 [15 13 15  2]
 [12  9 15 13]], 

=11 

=16 

=12 d4 d4

[debug] move action_id=209, action=((4, 3), (4, 3)), 
[debug] current_player=1 (B), 
[debug] board[(4, 3)]=5, board[(4, 3)]=5, 
[debug] board state:
[[15  3 13  5]
 [ 4 15 13  3]
 [ 2  9 15 13]
 [ 8  1 10 11]
 [11 15 15  5]
 [ 8 12 15  7]
 [15 13 15  2]
 [12  9 15 13]], 

=11 

=16 

[debug] move action_id=198, action=((4, 2), (4, 2)), 
[debug] current_player=0 (R), 
[debug] board[(4, 2)]=4, board[(4, 2)]=4, 
[debug] board state:
[[15  3 13  5]
 [ 4 15 13  3]
 [ 2  9 15 13]
 [ 8  1 10 11]
 [11 15  4  5]
 [ 8 12 15  7]
 [15 13 15  2]
 [12  9 15 13]], 

=11 

=16 

=12 a8 a8

[debug] move action_id=0, action=((0, 0), (0, 0)), 
[debug] current_player=1 (B), 
[debug] board[(0, 0)]=6, board[(0, 0)]=6, 
[debug] board state:
[[ 6  3 13  5]
 [ 4 15 13  3]
 [ 2  9 15 13]
 [ 8  1 10 11]
 [11 15  4  5]
 [ 8 12 15  7]
 [15 13 15  2]
 [12  9 15 13]], 

=11 

=16 

[debug] move action_id=330, action=((7, 2), (7, 2)), 
[debug] current_player=0 (R), 
[debug] board[(7, 2)]=0, board[(7, 2)]=0, 
[debug] board state:
[[ 6  3 13  5]
 [ 4 15 13  3]
 [ 2  9 15 13]
 [ 8  1 10 11]
 [11 15  4  5]
 [ 8 12 15  7]
 [15 13 15  2]
 [12  9  0 13]], 

=11 

=16 

=12 c2 c2

[debug] move action_id=286, action=((6, 2), (6, 2)), 
[debug] current_player=1 (B), 
[debug] board[(6, 2)]=10, board[(6, 2)]=10, 
[debug] board state:
[[ 6  3 13  5]
 [ 4 15 13  3]
 [ 2  9 15 13]
 [ 8  1 10 11]
 [11 15  4  5]
 [ 8 12 15  7]
 [15 13 10  2]
 [12  9  0 13]], 

=11 

=16 

[debug] move action_id=55, action=((1, 1), (1, 1)), 
[debug] current_player=0 (R), 
[debug] board[(1, 1)]=6, board[(1, 1)]=6, 
[debug] board state:
[[ 6  3 13  5]
 [ 4  6 13  3]
 [ 2  9 15 13]
 [ 8  1 10 11]
 [11 15  4  5]
 [ 8 12 15  7]
 [15 13 10  2]
 [12  9  0 13]], 

=11 

=16 

=12 b4 b4

[debug] move action_id=187, action=((4, 1), (4, 1)), 
[debug] current_player=1 (B), 
[debug] board[(4, 1)]=6, board[(4, 1)]=6, 
[debug] board state:
[[ 6  3 13  5]
 [ 4  6 13  3]
 [ 2  9 15 13]
 [ 8  1 10 11]
 [11  6  4  5]
 [ 8 12 15  7]
 [15 13 10  2]
 [12  9  0 13]], 

=11 

=16 

[debug] move action_id=242, action=((5, 2), (5, 2)), 
[debug] current_player=0 (R), 
[debug] board[(5, 2)]=6, board[(5, 2)]=6, 
[debug] board state:
[[ 6  3 13  5]
 [ 4  6 13  3]
 [ 2  9 15 13]
 [ 8  1 10 11]
 [11  6  4  5]
 [ 8 12  6  7]
 [15 13 10  2]
 [12  9  0 13]], 

=11 

=16 

=12 d7 d6

[debug] move action_id=123, action=((1, 3), (2, 3)), 
[debug] current_player=1 (B), 
[debug] board[(1, 3)]=14, board[(2, 3)]=3, 
[debug] board state:
[[ 6  3 13  5]
 [ 4  6 13 14]
 [ 2  9 15  3]
 [ 8  1 10 11]
 [11  6  4  5]
 [ 8 12  6  7]
 [15 13 10  2]
 [12  9  0 13]], 

=10 

=16 

[debug] move action_id=264, action=((6, 0), (6, 0)), 
[debug] current_player=0 (R), 
[debug] board[(6, 0)]=6, board[(6, 0)]=6, 
[debug] board state:
[[ 6  3 13  5]
 [ 4  6 13 14]
 [ 2  9 15  3]
 [ 8  1 10 11]
 [11  6  4  5]
 [ 8 12  6  7]
 [ 6 13 10  2]
 [12  9  0 13]], 

=11 

=16 

=12 c6 c6

[debug] move action_id=110, action=((2, 2), (2, 2)), 
[debug] current_player=1 (B), 
[debug] board[(2, 2)]=1, board[(2, 2)]=1, 
[debug] board state:
[[ 6  3 13  5]
 [ 4  6 13 14]
 [ 2  9  1  3]
 [ 8  1 10 11]
 [11  6  4  5]
 [ 8 12  6  7]
 [ 6 13 10  2]
 [12  9  0 13]], 

=11 

=16 

[debug] move action_id=214, action=((5, 3), (4, 3)), 
[debug] current_player=0 (R), 
[debug] board[(5, 3)]=14, board[(4, 3)]=7, 
[debug] board state:
[[ 6  3 13  5]
 [ 4  6 13 14]
 [ 2  9  1  3]
 [ 8  1 10 11]
 [11  6  4  7]
 [ 8 12  6 14]
 [ 6 13 10  2]
 [12  9  0 13]], 

=10 

=16 

=12 d2 d3

[debug] move action_id=259, action=((6, 3), (5, 3)), 
[debug] current_player=1 (B), 
[debug] board[(6, 3)]=14, board[(5, 3)]=2, 
[debug] board state:
[[ 6  3 13  5]
 [ 4  6 13 14]
 [ 2  9  1  3]
 [ 8  1 10 11]
 [11  6  4  7]
 [ 8 12  6  2]
 [ 6 13 10 14]
 [12  9  0 13]], 

=10 

=16 

[debug] move action_id=304, action=((7, 3), (6, 3)), 
[debug] current_player=0 (R), 
[debug] board[(7, 3)]=14, board[(6, 3)]=13, 
[debug] board state:
[[ 6  3 13  5]
 [ 4  6 13 14]
 [ 2  9  1  3]
 [ 8  1 10 11]
 [11  6  4  7]
 [ 8 12  6  2]
 [ 6 13 10 13]
 [12  9  0 14]], 

=10 

=16 

=12 c1 d1

[debug] move action_id=340, action=((7, 2), (7, 3)), 
[debug] current_player=1 (B), 
[debug] board[(7, 2)]=14, board[(7, 3)]=0, 
[debug] board state:
[[ 6  3 13  5]
 [ 4  6 13 14]
 [ 2  9  1  3]
 [ 8  1 10 11]
 [11  6  4  7]
 [ 8 12  6  2]
 [ 6 13 10 13]
 [12  9 14  0]], 

=10 

=16 

[debug] move action_id=184, action=((4, 0), (4, 1)), 
[debug] current_player=0 (R), 
[debug] board[(4, 0)]=14, board[(4, 1)]=11, 
[debug] board state:
[[ 6  3 13  5]
 [ 4  6 13 14]
 [ 2  9  1  3]
 [ 8  1 10 11]
 [14 11  4  7]
 [ 8 12  6  2]
 [ 6 13 10 13]
 [12  9 14  0]], 

=10 

=16 

=12 d1 c1

[debug] move action_id=351, action=((7, 3), (7, 2)), 
[debug] current_player=1 (B), 
[debug] board[(7, 3)]=14, board[(7, 2)]=0, 
[debug] board state:
[[ 6  3 13  5]
 [ 4  6 13 14]
 [ 2  9  1  3]
 [ 8  1 10 11]
 [14 11  4  7]
 [ 8 12  6  2]
 [ 6 13 10 13]
 [12  9  0 14]], 

=10 

=16 

[debug] move action_id=180, action=((3, 0), (4, 0)), 
[debug] current_player=0 (R), 
[debug] board[(3, 0)]=14, board[(4, 0)]=8, 
[debug] board state:
[[ 6  3 13  5]
 [ 4  6 13 14]
 [ 2  9  1  3]
 [14  1 10 11]
 [ 8 11  4  7]
 [ 8 12  6  2]
 [ 6 13 10 13]
 [12  9  0 14]], 

=10 

=16 

=12 c1 d1

[debug] move action_id=340, action=((7, 2), (7, 3)), 
[debug] current_player=1 (B), 
[debug] board[(7, 2)]=14, board[(7, 3)]=0, 
[debug] board state:
[[ 6  3 13  5]
 [ 4  6 13 14]
 [ 2  9  1  3]
 [14  1 10 11]
 [ 8 11  4  7]
 [ 8 12  6  2]
 [ 6 13 10 13]
 [12  9 14  0]], 

=10 

=16 

[debug] move action_id=328, action=((7, 1), (7, 2)), 
[debug] current_player=0 (R), 
[debug] board[(7, 1)]=14, board[(7, 2)]=9, 
[debug] board state:
[[ 6  3 13  5]
 [ 4  6 13 14]
 [ 2  9  1  3]
 [14  1 10 11]
 [ 8 11  4  7]
 [ 8 12  6  2]
 [ 6 13 10 13]
 [12 14  9  0]], 

=10 

=16 

=12 b5 a5

[debug] move action_id=151, action=((3, 1), (3, 0)), 
[debug] current_player=1 (B), 
[debug] board[(3, 1)]=14, board[(3, 0)]=1, 
[debug] board state:
[[ 6  3 13  5]
 [ 4  6 13 14]
 [ 2  9  1  3]
 [ 1 14 10 11]
 [ 8 11  4  7]
 [ 8 12  6  2]
 [ 6 13 10 13]
 [12 14  9  0]], 

=10 

=16 

[debug] move action_id=146, action=((2, 1), (3, 1)), 
[debug] current_player=0 (R), 
[debug] board[(2, 1)]=14, board[(3, 1)]=9, 
[debug] board state:
[[ 6  3 13  5]
 [ 4  6 13 14]
 [ 2 14  1  3]
 [ 1  9 10 11]
 [ 8 11  4  7]
 [ 8 12  6  2]
 [ 6 13 10 13]
 [12 14  9  0]], 

=10 

=16 

=12 c6 b6

[debug] move action_id=119, action=((2, 2), (2, 1)), 
[debug] current_player=1 (B), 
[debug] board[(2, 2)]=14, board[(2, 1)]=1, 
[debug] board state:
[[ 6  3 13  5]
 [ 4  6 13 14]
 [ 2  1 14  3]
 [ 1  9 10 11]
 [ 8 11  4  7]
 [ 8 12  6  2]
 [ 6 13 10 13]
 [12 14  9  0]], 

=10 

=16 

[debug] move action_id=316, action=((7, 0), (7, 1)), 
[debug] current_player=0 (R), 
[debug] board[(7, 0)]=14, board[(7, 1)]=12, 
[debug] board state:
[[ 6  3 13  5]
 [ 4  6 13 14]
 [ 2  1 14  3]
 [ 1  9 10 11]
 [ 8 11  4  7]
 [ 8 12  6  2]
 [ 6 13 10 13]
 [14 12  9  0]], 

=10 

=16 

=12 d6 d7

[debug] move action_id=79, action=((2, 3), (1, 3)), 
[debug] current_player=1 (B), 
[debug] board[(2, 3)]=14, board[(1, 3)]=3, 
[debug] board state:
[[ 6  3 13  5]
 [ 4  6 13  3]
 [ 2  1 14 14]
 [ 1  9 10 11]
 [ 8 11  4  7]
 [ 8 12  6  2]
 [ 6 13 10 13]
 [14 12  9  0]], 

=10 

=16 

[debug] move action_id=112, action=((1, 2), (2, 2)), 
[debug] current_player=0 (R), 
[debug] board[(1, 2)]=14, board[(2, 2)]=13, 
[debug] board state:
[[ 6  3 13  5]
 [ 4  6 14  3]
 [ 2  1 13 14]
 [ 1  9 10 11]
 [ 8 11  4  7]
 [ 8 12  6  2]
 [ 6 13 10 13]
 [14 12  9  0]], 

=10 

=16 

=12 d7 c7

[debug] move action_id=87, action=((1, 3), (1, 2)), 
[debug] current_player=1 (B), 
[debug] board[(1, 3)]=14, board[(1, 2)]=3, 
[debug] board state:
[[ 6  3 13  5]
 [ 4  6  3 14]
 [ 2  1 13 14]
 [ 1  9 10 11]
 [ 8 11  4  7]
 [ 8 12  6  2]
 [ 6 13 10 13]
 [14 12  9  0]], 

=10 

=16 

[debug] move action_id=120, action=((2, 2), (2, 3)), 
[debug] current_player=0 (R), 
[debug] board[(2, 2)]=14, board[(2, 3)]=13, 
[debug] board state:
[[ 6  3 13  5]
 [ 4  6  3 14]
 [ 2  1 14 13]
 [ 1  9 10 11]
 [ 8 11  4  7]
 [ 8 12  6  2]
 [ 6 13 10 13]
 [14 12  9  0]], 

=10 

=16 

=12 d8 d7

[debug] move action_id=78, action=((0, 3), (1, 3)), 
[debug] current_player=1 (B), 
[debug] board[(0, 3)]=14, board[(1, 3)]=5, 
[debug] board state:
[[ 6  3 13 14]
 [ 4  6  3  5]
 [ 2  1 14 13]
 [ 1  9 10 11]
 [ 8 11  4  7]
 [ 8 12  6  2]
 [ 6 13 10 13]
 [14 12  9  0]], 

=10 

=16 

[debug] move action_id=327, action=((7, 1), (7, 0)), 
[debug] current_player=0 (R), 
[debug] board[(7, 1)]=14, board[(7, 0)]=12, 
[debug] board state:
[[ 6  3 13 14]
 [ 4  6  3  5]
 [ 2  1 14 13]
 [ 1  9 10 11]
 [ 8 11  4  7]
 [ 8 12  6  2]
 [ 6 13 10 13]
 [12 14  9  0]], 

=10 

=16 

=12 d7 d8

[debug] move action_id=34, action=((1, 3), (0, 3)), 
[debug] current_player=1 (B), 
[debug] board[(1, 3)]=14, board[(0, 3)]=5, 
[debug] board state:
[[ 6  3 13  5]
 [ 4  6  3 14]
 [ 2  1 14 13]
 [ 1  9 10 11]
 [ 8 11  4  7]
 [ 8 12  6  2]
 [ 6 13 10 13]
 [12 14  9  0]], 

=10 

=16 

[debug] move action_id=316, action=((7, 0), (7, 1)), 
[debug] current_player=0 (R), 
[debug] board[(7, 0)]=14, board[(7, 1)]=12, 
[debug] board state:
[[ 6  3 13  5]
 [ 4  6  3 14]
 [ 2  1 14 13]
 [ 1  9 10 11]
 [ 8 11  4  7]
 [ 8 12  6  2]
 [ 6 13 10 13]
 [14 12  9  0]], 

=10 

=16 

=12 d8 d7

[debug] move action_id=78, action=((0, 3), (1, 3)), 
[debug] current_player=1 (B), 
[debug] board[(0, 3)]=14, board[(1, 3)]=5, 
[debug] board state:
[[ 6  3 13 14]
 [ 4  6  3  5]
 [ 2  1 14 13]
 [ 1  9 10 11]
 [ 8 11  4  7]
 [ 8 12  6  2]
 [ 6 13 10 13]
 [14 12  9  0]], 

=10 

=16 

[debug] move action_id=327, action=((7, 1), (7, 0)), 
[debug] current_player=0 (R), 
[debug] board[(7, 1)]=14, board[(7, 0)]=12, 
[debug] board state:
[[ 6  3 13 14]
 [ 4  6  3  5]
 [ 2  1 14 13]
 [ 1  9 10 11]
 [ 8 11  4  7]
 [ 8 12  6  2]
 [ 6 13 10 13]
 [12 14  9  0]], 

=10 

=16 

=12 d7 d8

[debug] move action_id=34, action=((1, 3), (0, 3)), 
[debug] current_player=1 (B), 
[debug] board[(1, 3)]=14, board[(0, 3)]=5, 
[debug] board state:
[[ 6  3 13  5]
 [ 4  6  3 14]
 [ 2  1 14 13]
 [ 1  9 10 11]
 [ 8 11  4  7]
 [ 8 12  6  2]
 [ 6 13 10 13]
 [12 14  9  0]], 

=10 

=16 

[debug] move action_id=316, action=((7, 0), (7, 1)), 
[debug] current_player=0 (R), 
[debug] board[(7, 0)]=14, board[(7, 1)]=12, 
[debug] board state:
[[ 6  3 13  5]
 [ 4  6  3 14]
 [ 2  1 14 13]
 [ 1  9 10 11]
 [ 8 11  4  7]
 [ 8 12  6  2]
 [ 6 13 10 13]
 [14 12  9  0]], 

=10 

=16 

=12 d1 c1

[debug] move action_id=351, action=((7, 3), (7, 2)), 
[debug] current_player=1 (B), 
[debug] board[(7, 3)]=14, board[(7, 2)]=0, 
[debug] board state:
[[ 6  3 13  5]
 [ 4  6  3 14]
 [ 2  1 14 13]
 [ 1  9 10 11]
 [ 8 11  4  7]
 [ 8 12  6  2]
 [ 6 13 10 13]
 [14 12  0 14]], 

=10 

=16 

[debug] move action_id=348, action=((6, 3), (7, 3)), 
[debug] current_player=0 (R), 
