INITIAL
* 7:53pm Feb 18, 2026
* a0_mu vs a1_lightzero
* 1 2 2 2 2 2 5 1 2 2 2 2 2 5
* X X X X
* X X X X
* X X X X
* X X X X
* X X X X
* X X X X
* X X X X
* X X X X
* first 0
* time 900
* 1. b1(R) b8(K)
* 2. c7(r) a4(p)
* 3. a6(C) b2(n)
* 4. b5(p) d3(M)
* 5. d6(C) d7(c)
* 6. c5(P) d1(M)
* 7. a7(p) d8(g)
* 8. c8(G) d2(c)
* 9. a3(G) a1(n)
* 10. b6(m) c6(k)
* 11. c3(R) b7(p)
* 12. a5(P) d5(m)
* 13. b4(p) b3(P)
* 14. c2(g) d4(N)
* 15. a8(P) a2(P)
* 16. a3-a4 c1(N)
* 17. a4-a3 c4(r)
* 18. a3-a4 c2-c1
* 19. a4-a3 c1-c2
* 20. d1-c1 a1-a2
* 21. c1-d1 c2-c1
* 22. c3-c2 c4-c3
* 23. c5-c4 d5-c5
* 24. b1-a1 c1-b1
* 25. a3-a4 a2-a3
* 26. a1-a2 c5-d5
* 27. a2-a1 b1-c1
* 28. a1-a2 c1-b1
* 29. a2-a1 b1-c1
* 30. a1-a2 c1-b1
* 31. a2-a1 d5-c5
* 32. a1-a2 c5-d5
* 33. a2-a1 b1-c1
* 34. a1-a2 c1-b1
* 35. a2-a1 d5-c5
* 36. a1-a2 c5-d5
* 37. a2-a1 b1-c1
* 38. a1-a2 c1-b1
* 39. a2-a1 b1-c1
* 40. a1-a2 c1-b1
* 41. a2-a1 b1-c1
* 42. a1-a2 c1-b1
* PositionRepetitionDraw,3,4 a0_mu Draw 0.500000,0.500000
* Comment 0 0
0. 1771415621776
1. 1771415621776
2. 1771415622963
3. 1771415623922
4. 1771415624917
5. 1771415625877
6. 1771415626871
7. 1771415627832
8. 1771415628874
9. 1771415629836
10. 1771415630878
11. 1771415631840
12. 1771415632882
13. 1771415633844
14. 1771415634885
15. 1771415635848
16. 1771415636889
17. 1771415637852
18. 1771415638892
19. 1771415639856
20. 1771415640896
21. 1771415641859
22. 1771415642899
23. 1771415643862
24. 1771415644902
25. 1771415645916
26. 1771415646956
27. 1771415647970
28. 1771415649010
29. 1771415650024
30. 1771415651064
31. 1771415652029
32. 1771415653068
33. 1771415654031
34. 1771415655072
35. 1771415656034
36. 1771415657076
37. 1771415658037
38. 1771415659080
39. 1771415660040
40. 1771415661035
41. 1771415661994
42. 1771415662988
43. 1771415663948
44. 1771415664942
45. 1771415665900
46. 1771415666896
47. 1771415667854
48. 1771415668850
49. 1771415669807
50. 1771415670803
51. 1771415671761
52. 1771415672756
53. 1771415673715
54. 1771415674709
55. 1771415675669
56. 1771415676712
57. 1771415677672
58. 1771415678666
59. 1771415679626
60. 1771415680670
61. 1771415681629
62. 1771415682624
63. 1771415683583
64. 1771415684577
65. 1771415685537
66. 1771415686531
67. 1771415687540
68. 1771415688536
69. 1771415689544
70. 1771415690540
71. 1771415691547
72. 1771415692545
73. 1771415693499
74. 1771415694500
75. 1771415695452
76. 1771415696456
77. 1771415697405
78. 1771415698409
79. 1771415699359
80. 1771415700363
81. 1771415701312
82. 1771415702316
83. 1771415703266
84. 1771415704271

# 10 27 29 63 65 99 101 135 137 171 173 207 209 243 245 279 281 315 317 351 353 387 389 423 425 459 461 495 497 531 533 567 569 603 605 639 641 675 677 711 713 747 749 783 785 819 821 855 857 891 893 927 929 963 965 999 1001 1035 1037 1071 1073 1107 1109 1143 1145 1179 1181 1215 1217 1251 1253 1287 1289 1323 1325 1359 1361 1395 1397 1431 1433 1467 1469 1503 1505 #
LightZero MGTP Interface Ready
=1 LightZero_DarkChess

=2 1.0.0

=7 

=15 

=14 

[debug] move action_id=319, action=((7, 1), (7, 1)), 
[debug] current_player=1 (B), 
[debug] board[(7, 1)]=3, board[(7, 1)]=3, 
[debug] board state:
[[15 15 15 15]
 [15 15 15 15]
 [15 15 15 15]
 [15 15 15 15]
 [15 15 15 15]
 [15 15 15 15]
 [15 15 15 15]
 [15  3 15 15]], 

=11 

=16 

=12 b8 b8

[debug] move action_id=11, action=((0, 1), (0, 1)), 
[debug] current_player=0 (R), 
[debug] board[(0, 1)]=0, board[(0, 1)]=0, 
[debug] board state:
[[15  0 15 15]
 [15 15 15 15]
 [15 15 15 15]
 [15 15 15 15]
 [15 15 15 15]
 [15 15 15 15]
 [15 15 15 15]
 [15  3 15 15]], 

=11 

=16 

[debug] move action_id=66, action=((1, 2), (1, 2)), 
[debug] current_player=1 (B), 
[debug] board[(1, 2)]=10, board[(1, 2)]=10, 
[debug] board state:
[[15  0 15 15]
 [15 15 10 15]
 [15 15 15 15]
 [15 15 15 15]
 [15 15 15 15]
 [15 15 15 15]
 [15 15 15 15]
 [15  3 15 15]], 

=11 

=16 

=12 a4 a4

[debug] move action_id=176, action=((4, 0), (4, 0)), 
[debug] current_player=0 (R), 
[debug] board[(4, 0)]=13, board[(4, 0)]=13, 
[debug] board state:
[[15  0 15 15]
 [15 15 10 15]
 [15 15 15 15]
 [15 15 15 15]
 [13 15 15 15]
 [15 15 15 15]
 [15 15 15 15]
 [15  3 15 15]], 

=11 

=16 

[debug] move action_id=88, action=((2, 0), (2, 0)), 
[debug] current_player=1 (B), 
[debug] board[(2, 0)]=5, board[(2, 0)]=5, 
[debug] board state:
[[15  0 15 15]
 [15 15 10 15]
 [ 5 15 15 15]
 [15 15 15 15]
 [13 15 15 15]
 [15 15 15 15]
 [15 15 15 15]
 [15  3 15 15]], 

=11 

=16 

=12 b2 b2

[debug] move action_id=275, action=((6, 1), (6, 1)), 
[debug] current_player=0 (R), 
[debug] board[(6, 1)]=11, board[(6, 1)]=11, 
[debug] board state:
[[15  0 15 15]
 [15 15 10 15]
 [ 5 15 15 15]
 [15 15 15 15]
 [13 15 15 15]
 [15 15 15 15]
 [15 11 15 15]
 [15  3 15 15]], 

=11 

=16 

[debug] move action_id=143, action=((3, 1), (3, 1)), 
[debug] current_player=1 (B), 
[debug] board[(3, 1)]=13, board[(3, 1)]=13, 
[debug] board state:
[[15  0 15 15]
 [15 15 10 15]
 [ 5 15 15 15]
 [15 13 15 15]
 [13 15 15 15]
 [15 15 15 15]
 [15 11 15 15]
 [15  3 15 15]], 

=11 

=16 

=12 d3 d3

[debug] move action_id=253, action=((5, 3), (5, 3)), 
[debug] current_player=0 (R), 
[debug] board[(5, 3)]=2, board[(5, 3)]=2, 
[debug] board state:
[[15  0 15 15]
 [15 15 10 15]
 [ 5 15 15 15]
 [15 13 15 15]
 [13 15 15 15]
 [15 15 15  2]
 [15 11 15 15]
 [15  3 15 15]], 

=11 

=16 

[debug] move action_id=121, action=((2, 3), (2, 3)), 
[debug] current_player=1 (B), 
[debug] board[(2, 3)]=5, board[(2, 3)]=5, 
[debug] board state:
[[15  0 15 15]
 [15 15 10 15]
 [ 5 15 15  5]
 [15 13 15 15]
 [13 15 15 15]
 [15 15 15  2]
 [15 11 15 15]
 [15  3 15 15]], 

=11 

=16 

=12 d7 d7

[debug] move action_id=77, action=((1, 3), (1, 3)), 
[debug] current_player=0 (R), 
[debug] board[(1, 3)]=12, board[(1, 3)]=12, 
[debug] board state:
[[15  0 15 15]
 [15 15 10 12]
 [ 5 15 15  5]
 [15 13 15 15]
 [13 15 15 15]
 [15 15 15  2]
 [15 11 15 15]
 [15  3 15 15]], 

=11 

=16 

[debug] move action_id=154, action=((3, 2), (3, 2)), 
[debug] current_player=1 (B), 
[debug] board[(3, 2)]=6, board[(3, 2)]=6, 
[debug] board state:
[[15  0 15 15]
 [15 15 10 12]
 [ 5 15 15  5]
 [15 13  6 15]
 [13 15 15 15]
 [15 15 15  2]
 [15 11 15 15]
 [15  3 15 15]], 

=11 

=16 

=12 d1 d1

[debug] move action_id=341, action=((7, 3), (7, 3)), 
[debug] current_player=0 (R), 
[debug] board[(7, 3)]=2, board[(7, 3)]=2, 
[debug] board state:
[[15  0 15 15]
 [15 15 10 12]
 [ 5 15 15  5]
 [15 13  6 15]
 [13 15 15 15]
 [15 15 15  2]
 [15 11 15 15]
 [15  3 15  2]], 

=11 

=16 

[debug] move action_id=44, action=((1, 0), (1, 0)), 
[debug] current_player=1 (B), 
[debug] board[(1, 0)]=13, board[(1, 0)]=13, 
[debug] board state:
[[15  0 15 15]
 [13 15 10 12]
 [ 5 15 15  5]
 [15 13  6 15]
 [13 15 15 15]
 [15 15 15  2]
 [15 11 15 15]
 [15  3 15  2]], 

=11 

=16 

=12 d8 d8

[debug] move action_id=33, action=((0, 3), (0, 3)), 
[debug] current_player=0 (R), 
[debug] board[(0, 3)]=8, board[(0, 3)]=8, 
[debug] board state:
[[15  0 15  8]
 [13 15 10 12]
 [ 5 15 15  5]
 [15 13  6 15]
 [13 15 15 15]
 [15 15 15  2]
 [15 11 15 15]
 [15  3 15  2]], 

=11 

=16 

[debug] move action_id=22, action=((0, 2), (0, 2)), 
[debug] current_player=1 (B), 
[debug] board[(0, 2)]=1, board[(0, 2)]=1, 
[debug] board state:
[[15  0  1  8]
 [13 15 10 12]
 [ 5 15 15  5]
 [15 13  6 15]
 [13 15 15 15]
 [15 15 15  2]
 [15 11 15 15]
 [15  3 15  2]], 

=11 

=16 

=12 d2 d2

[debug] move action_id=297, action=((6, 3), (6, 3)), 
[debug] current_player=0 (R), 
[debug] board[(6, 3)]=12, board[(6, 3)]=12, 
[debug] board state:
[[15  0  1  8]
 [13 15 10 12]
 [ 5 15 15  5]
 [15 13  6 15]
 [13 15 15 15]
 [15 15 15  2]
 [15 11 15 12]
 [15  3 15  2]], 

=11 

=16 

[debug] move action_id=220, action=((5, 0), (5, 0)), 
[debug] current_player=1 (B), 
[debug] board[(5, 0)]=1, board[(5, 0)]=1, 
[debug] board state:
[[15  0  1  8]
 [13 15 10 12]
 [ 5 15 15  5]
 [15 13  6 15]
 [13 15 15 15]
 [ 1 15 15  2]
 [15 11 15 12]
 [15  3 15  2]], 

=11 

=16 

=12 a1 a1

[debug] move action_id=308, action=((7, 0), (7, 0)), 
[debug] current_player=0 (R), 
[debug] board[(7, 0)]=11, board[(7, 0)]=11, 
[debug] board state:
[[15  0  1  8]
 [13 15 10 12]
 [ 5 15 15  5]
 [15 13  6 15]
 [13 15 15 15]
 [ 1 15 15  2]
 [15 11 15 12]
 [11  3 15  2]], 

=11 

=16 

[debug] move action_id=99, action=((2, 1), (2, 1)), 
[debug] current_player=1 (B), 
[debug] board[(2, 1)]=9, board[(2, 1)]=9, 
[debug] board state:
[[15  0  1  8]
 [13 15 10 12]
 [ 5  9 15  5]
 [15 13  6 15]
 [13 15 15 15]
 [ 1 15 15  2]
 [15 11 15 12]
 [11  3 15  2]], 

=11 

=16 

=12 c6 c6

[debug] move action_id=110, action=((2, 2), (2, 2)), 
[debug] current_player=0 (R), 
[debug] board[(2, 2)]=7, board[(2, 2)]=7, 
[debug] board state:
[[15  0  1  8]
 [13 15 10 12]
 [ 5  9  7  5]
 [15 13  6 15]
 [13 15 15 15]
 [ 1 15 15  2]
 [15 11 15 12]
 [11  3 15  2]], 

=11 

=16 

[debug] move action_id=242, action=((5, 2), (5, 2)), 
[debug] current_player=1 (B), 
[debug] board[(5, 2)]=3, board[(5, 2)]=3, 
[debug] board state:
[[15  0  1  8]
 [13 15 10 12]
 [ 5  9  7  5]
 [15 13  6 15]
 [13 15 15 15]
 [ 1 15  3  2]
 [15 11 15 12]
 [11  3 15  2]], 

=11 

=16 

=12 b7 b7

[debug] move action_id=55, action=((1, 1), (1, 1)), 
[debug] current_player=0 (R), 
[debug] board[(1, 1)]=13, board[(1, 1)]=13, 
[debug] board state:
[[15  0  1  8]
 [13 13 10 12]
 [ 5  9  7  5]
 [15 13  6 15]
 [13 15 15 15]
 [ 1 15  3  2]
 [15 11 15 12]
 [11  3 15  2]], 

=11 

=16 

[debug] move action_id=132, action=((3, 0), (3, 0)), 
[debug] current_player=1 (B), 
[debug] board[(3, 0)]=6, board[(3, 0)]=6, 
[debug] board state:
[[15  0  1  8]
 [13 13 10 12]
 [ 5  9  7  5]
 [ 6 13  6 15]
 [13 15 15 15]
 [ 1 15  3  2]
 [15 11 15 12]
 [11  3 15  2]], 

=11 

=16 

=12 d5 d5

[debug] move action_id=165, action=((3, 3), (3, 3)), 
[debug] current_player=0 (R), 
[debug] board[(3, 3)]=9, board[(3, 3)]=9, 
[debug] board state:
[[15  0  1  8]
 [13 13 10 12]
 [ 5  9  7  5]
 [ 6 13  6  9]
 [13 15 15 15]
 [ 1 15  3  2]
 [15 11 15 12]
 [11  3 15  2]], 

=11 

=16 

[debug] move action_id=187, action=((4, 1), (4, 1)), 
[debug] current_player=1 (B), 
[debug] board[(4, 1)]=13, board[(4, 1)]=13, 
[debug] board state:
[[15  0  1  8]
 [13 13 10 12]
 [ 5  9  7  5]
 [ 6 13  6  9]
 [13 13 15 15]
 [ 1 15  3  2]
 [15 11 15 12]
 [11  3 15  2]], 

=11 

=16 

=12 b3 b3

[debug] move action_id=231, action=((5, 1), (5, 1)), 
[debug] current_player=0 (R), 
[debug] board[(5, 1)]=6, board[(5, 1)]=6, 
[debug] board state:
[[15  0  1  8]
 [13 13 10 12]
 [ 5  9  7  5]
 [ 6 13  6  9]
 [13 13 15 15]
 [ 1  6  3  2]
 [15 11 15 12]
 [11  3 15  2]], 

=11 

=16 

[debug] move action_id=286, action=((6, 2), (6, 2)), 
[debug] current_player=1 (B), 
[debug] board[(6, 2)]=8, board[(6, 2)]=8, 
[debug] board state:
[[15  0  1  8]
 [13 13 10 12]
 [ 5  9  7  5]
 [ 6 13  6  9]
 [13 13 15 15]
 [ 1  6  3  2]
 [15 11  8 12]
 [11  3 15  2]], 

=11 

=16 

=12 d4 d4

[debug] move action_id=209, action=((4, 3), (4, 3)), 
[debug] current_player=0 (R), 
[debug] board[(4, 3)]=4, board[(4, 3)]=4, 
[debug] board state:
[[15  0  1  8]
 [13 13 10 12]
 [ 5  9  7  5]
 [ 6 13  6  9]
 [13 13 15  4]
 [ 1  6  3  2]
 [15 11  8 12]
 [11  3 15  2]], 

=11 

=16 

[debug] move action_id=0, action=((0, 0), (0, 0)), 
[debug] current_player=1 (B), 
[debug] board[(0, 0)]=6, board[(0, 0)]=6, 
[debug] board state:
[[ 6  0  1  8]
 [13 13 10 12]
 [ 5  9  7  5]
 [ 6 13  6  9]
 [13 13 15  4]
 [ 1  6  3  2]
 [15 11  8 12]
 [11  3 15  2]], 

=11 

=16 

=12 a2 a2

[debug] move action_id=264, action=((6, 0), (6, 0)), 
[debug] current_player=0 (R), 
[debug] board[(6, 0)]=6, board[(6, 0)]=6, 
[debug] board state:
[[ 6  0  1  8]
 [13 13 10 12]
 [ 5  9  7  5]
 [ 6 13  6  9]
 [13 13 15  4]
 [ 1  6  3  2]
 [ 6 11  8 12]
 [11  3 15  2]], 

=11 

=16 

[debug] move action_id=181, action=((5, 0), (4, 0)), 
[debug] current_player=1 (B), 
[debug] board[(5, 0)]=14, board[(4, 0)]=1, 
[debug] board state:
[[ 6  0  1  8]
 [13 13 10 12]
 [ 5  9  7  5]
 [ 6 13  6  9]
 [ 1 13 15  4]
 [14  6  3  2]
 [ 6 11  8 12]
 [11  3 15  2]], 

=10 

=16 

=12 c1 c1

[debug] move action_id=330, action=((7, 2), (7, 2)), 
[debug] current_player=0 (R), 
[debug] board[(7, 2)]=4, board[(7, 2)]=4, 
[debug] board state:
[[ 6  0  1  8]
 [13 13 10 12]
 [ 5  9  7  5]
 [ 6 13  6  9]
 [ 1 13 15  4]
 [14  6  3  2]
 [ 6 11  8 12]
 [11  3  4  2]], 

=11 

=16 

[debug] move action_id=225, action=((4, 0), (5, 0)), 
[debug] current_player=1 (B), 
[debug] board[(4, 0)]=14, board[(5, 0)]=1, 
[debug] board state:
[[ 6  0  1  8]
 [13 13 10 12]
 [ 5  9  7  5]
 [ 6 13  6  9]
 [14 13 15  4]
 [ 1  6  3  2]
 [ 6 11  8 12]
 [11  3  4  2]], 

=10 

=16 

=12 c4 c4

[debug] move action_id=198, action=((4, 2), (4, 2)), 
[debug] current_player=0 (R), 
[debug] board[(4, 2)]=10, board[(4, 2)]=10, 
[debug] board state:
[[ 6  0  1  8]
 [13 13 10 12]
 [ 5  9  7  5]
 [ 6 13  6  9]
 [14 13 10  4]
 [ 1  6  3  2]
 [ 6 11  8 12]
 [11  3  4  2]], 

=11 

=16 

[debug] move action_id=181, action=((5, 0), (4, 0)), 
[debug] current_player=1 (B), 
[debug] board[(5, 0)]=14, board[(4, 0)]=1, 
[debug] board state:
[[ 6  0  1  8]
 [13 13 10 12]
 [ 5  9  7  5]
 [ 6 13  6  9]
 [ 1 13 10  4]
 [14  6  3  2]
 [ 6 11  8 12]
 [11  3  4  2]], 

=10 

=16 

=12 c2 c1

[debug] move action_id=337, action=((6, 2), (7, 2)), 
[debug] current_player=0 (R), 
[debug] board[(6, 2)]=14, board[(7, 2)]=8, 
[debug] board state:
[[ 6  0  1  8]
 [13 13 10 12]
 [ 5  9  7  5]
 [ 6 13  6  9]
 [ 1 13 10  4]
 [14  6  3  2]
 [ 6 11 14 12]
 [11  3  8  2]], 

=10 

=16 

[debug] move action_id=225, action=((4, 0), (5, 0)), 
[debug] current_player=1 (B), 
[debug] board[(4, 0)]=14, board[(5, 0)]=1, 
[debug] board state:
[[ 6  0  1  8]
 [13 13 10 12]
 [ 5  9  7  5]
 [ 6 13  6  9]
 [14 13 10  4]
 [ 1  6  3  2]
 [ 6 11 14 12]
 [11  3  8  2]], 

=10 

=16 

=12 c1 c2

[debug] move action_id=293, action=((7, 2), (6, 2)), 
[debug] current_player=0 (R), 
[debug] board[(7, 2)]=14, board[(6, 2)]=8, 
[debug] board state:
[[ 6  0  1  8]
 [13 13 10 12]
 [ 5  9  7  5]
 [ 6 13  6  9]
 [14 13 10  4]
 [ 1  6  3  2]
 [ 6 11  8 12]
 [11  3 14  2]], 

=10 

=16 

[debug] move action_id=351, action=((7, 3), (7, 2)), 
[debug] current_player=1 (B), 
[debug] board[(7, 3)]=14, board[(7, 2)]=2, 
[debug] board state:
[[ 6  0  1  8]
 [13 13 10 12]
 [ 5  9  7  5]
 [ 6 13  6  9]
 [14 13 10  4]
 [ 1  6  3  2]
 [ 6 11  8 12]
 [11  3  2 14]], 

=10 

=16 

=12 a1 a2

[debug] move action_id=271, action=((7, 0), (6, 0)), 
[debug] current_player=0 (R), 
[debug] board[(7, 0)]=14, board[(6, 0)]=11, 
[debug] board state:
[[ 6  0  1  8]
 [13 13 10 12]
 [ 5  9  7  5]
 [ 6 13  6  9]
 [14 13 10  4]
 [ 1  6  3  2]
 [11 11  8 12]
 [14  3  2 14]], 

=10 

=16 

[debug] move action_id=340, action=((7, 2), (7, 3)), 
[debug] current_player=1 (B), 
[debug] board[(7, 2)]=14, board[(7, 3)]=2, 
[debug] board state:
[[ 6  0  1  8]
 [13 13 10 12]
 [ 5  9  7  5]
 [ 6 13  6  9]
 [14 13 10  4]
 [ 1  6  3  2]
 [11 11  8 12]
 [14  3 14  2]], 

=10 

=16 

=12 c2 c1

[debug] move action_id=337, action=((6, 2), (7, 2)), 
[debug] current_player=0 (R), 
[debug] board[(6, 2)]=14, board[(7, 2)]=8, 
[debug] board state:
[[ 6  0  1  8]
 [13 13 10 12]
 [ 5  9  7  5]
 [ 6 13  6  9]
 [14 13 10  4]
 [ 1  6  3  2]
 [11 11 14 12]
 [14  3  8  2]], 

=10 

=16 

[debug] move action_id=292, action=((5, 2), (6, 2)), 
[debug] current_player=1 (B), 
[debug] board[(5, 2)]=14, board[(6, 2)]=3, 
[debug] board state:
[[ 6  0  1  8]
 [13 13 10 12]
 [ 5  9  7  5]
 [ 6 13  6  9]
 [14 13 10  4]
 [ 1  6 14  2]
 [11 11  3 12]
 [14  3  8  2]], 

=10 

=16 

=12 c4 c3

[debug] move action_id=247, action=((4, 2), (5, 2)), 
[debug] current_player=0 (R), 
[debug] board[(4, 2)]=14, board[(5, 2)]=10, 
[debug] board state:
[[ 6  0  1  8]
 [13 13 10 12]
 [ 5  9  7  5]
 [ 6 13  6  9]
 [14 13 14  4]
 [ 1  6 10  2]
 [11 11  3 12]
 [14  3  8  2]], 

=10 

=16 

[debug] move action_id=202, action=((3, 2), (4, 2)), 
[debug] current_player=1 (B), 
[debug] board[(3, 2)]=14, board[(4, 2)]=6, 
[debug] board state:
[[ 6  0  1  8]
 [13 13 10 12]
 [ 5  9  7  5]
 [ 6 13 14  9]
 [14 13  6  4]
 [ 1  6 10  2]
 [11 11  3 12]
 [14  3  8  2]], 

=10 

=16 

=12 d5 c5

[debug] move action_id=175, action=((3, 3), (3, 2)), 
[debug] current_player=0 (R), 
[debug] board[(3, 3)]=14, board[(3, 2)]=9, 
[debug] board state:
[[ 6  0  1  8]
 [13 13 10 12]
 [ 5  9  7  5]
 [ 6 13  9 14]
 [14 13  6  4]
 [ 1  6 10  2]
 [11 11  3 12]
 [14  3  8  2]], 

=10 

=16 

[debug] move action_id=327, action=((7, 1), (7, 0)), 
[debug] current_player=1 (B), 
[debug] board[(7, 1)]=14, board[(7, 0)]=3, 
[debug] board state:
[[ 6  0  1  8]
 [13 13 10 12]
 [ 5  9  7  5]
 [ 6 13  9 14]
 [14 13  6  4]
 [ 1  6 10  2]
 [11 11  3 12]
 [ 3 14  8  2]], 

=10 

=16 

=12 c1 b1

[debug] move action_id=339, action=((7, 2), (7, 1)), 
[debug] current_player=0 (R), 
[debug] board[(7, 2)]=14, board[(7, 1)]=8, 
[debug] board state:
[[ 6  0  1  8]
 [13 13 10 12]
 [ 5  9  7  5]
 [ 6 13  9 14]
 [14 13  6  4]
 [ 1  6 10  2]
 [11 11  3 12]
 [ 3  8 14  2]], 

=10 

=16 

[debug] move action_id=181, action=((5, 0), (4, 0)), 
[debug] current_player=1 (B), 
[debug] board[(5, 0)]=14, board[(4, 0)]=1, 
[debug] board state:
[[ 6  0  1  8]
 [13 13 10 12]
 [ 5  9  7  5]
 [ 6 13  9 14]
 [ 1 13  6  4]
 [14  6 10  2]
 [11 11  3 12]
 [ 3  8 14  2]], 

=10 

=16 

=12 a2 a3

[debug] move action_id=226, action=((6, 0), (5, 0)), 
[debug] current_player=0 (R), 
[debug] board[(6, 0)]=14, board[(5, 0)]=11, 
[debug] board state:
[[ 6  0  1  8]
 [13 13 10 12]
 [ 5  9  7  5]
 [ 6 13  9 14]
 [ 1 13  6  4]
 [11  6 10  2]
 [14 11  3 12]
 [ 3  8 14  2]], 

=10 

=16 

[debug] move action_id=271, action=((7, 0), (6, 0)), 
[debug] current_player=1 (B), 
[debug] board[(7, 0)]=14, board[(6, 0)]=3, 
[debug] board state:
[[ 6  0  1  8]
 [13 13 10 12]
 [ 5  9  7  5]
 [ 6 13  9 14]
 [ 1 13  6  4]
 [11  6 10  2]
 [ 3 11  3 12]
 [14  8 14  2]], 

=10 

=16 

=12 c5 d5

[debug] move action_id=164, action=((3, 2), (3, 3)), 
[debug] current_player=0 (R), 
[debug] board[(3, 2)]=14, board[(3, 3)]=9, 
[debug] board state:
[[ 6  0  1  8]
 [13 13 10 12]
 [ 5  9  7  5]
 [ 6 13 14  9]
 [ 1 13  6  4]
 [11  6 10  2]
 [ 3 11  3 12]
 [14  8 14  2]], 

=10 

=16 

[debug] move action_id=315, action=((6, 0), (7, 0)), 
[debug] current_player=1 (B), 
[debug] board[(6, 0)]=14, board[(7, 0)]=3, 
[debug] board state:
[[ 6  0  1  8]
 [13 13 10 12]
 [ 5  9  7  5]
 [ 6 13 14  9]
 [ 1 13  6  4]
 [11  6 10  2]
 [14 11  3 12]
 [ 3  8 14  2]], 

=10 

=16 

=12 b1 c1

[debug] move action_id=328, action=((7, 1), (7, 2)), 
[debug] current_player=0 (R), 
[debug] board[(7, 1)]=14, board[(7, 2)]=8, 
[debug] board state:
[[ 6  0  1  8]
 [13 13 10 12]
 [ 5  9  7  5]
 [ 6 13 14  9]
 [ 1 13  6  4]
 [11  6 10  2]
 [14 11  3 12]
 [ 3 14  8  2]], 

=10 

=16 

[debug] move action_id=271, action=((7, 0), (6, 0)), 
[debug] current_player=1 (B), 
[debug] board[(7, 0)]=14, board[(6, 0)]=3, 
[debug] board state:
[[ 6  0  1  8]
 [13 13 10 12]
 [ 5  9  7  5]
 [ 6 13 14  9]
 [ 1 13  6  4]
 [11  6 10  2]
 [ 3 11  3 12]
 [14 14  8  2]], 

=10 

=16 

=12 c1 b1

[debug] move action_id=339, action=((7, 2), (7, 1)), 
[debug] current_player=0 (R), 
[debug] board[(7, 2)]=14, board[(7, 1)]=8, 
[debug] board state:
[[ 6  0  1  8]
 [13 13 10 12]
 [ 5  9  7  5]
 [ 6 13 14  9]
 [ 1 13  6  4]
 [11  6 10  2]
 [ 3 11  3 12]
 [14  8 14  2]], 

=10 

=16 

[debug] move action_id=315, action=((6, 0), (7, 0)), 
[debug] current_player=1 (B), 
[debug] board[(6, 0)]=14, board[(7, 0)]=3, 
[debug] board state:
[[ 6  0  1  8]
 [13 13 10 12]
 [ 5  9  7  5]
 [ 6 13 14  9]
 [ 1 13  6  4]
 [11  6 10  2]
 [14 11  3 12]
 [ 3  8 14  2]], 

=10 

=16 

=12 b1 c1

[debug] move action_id=328, action=((7, 1), (7, 2)), 
[debug] current_player=0 (R), 
[debug] board[(7, 1)]=14, board[(7, 2)]=8, 
[debug] board state:
[[ 6  0  1  8]
 [13 13 10 12]
 [ 5  9  7  5]
 [ 6 13 14  9]
 [ 1 13  6  4]
 [11  6 10  2]
 [14 11  3 12]
 [ 3 14  8  2]], 

=10 

=16 

[debug] move action_id=271, action=((7, 0), (6, 0)), 
[debug] current_player=1 (B), 
[debug] board[(7, 0)]=14, board[(6, 0)]=3, 
