INITIAL
* 7:59pm Feb 18, 2026
* a1_lightzero vs a0_mu
* 1 2 2 2 2 2 5 1 2 2 2 2 2 5
* X X X X
* X X X X
* X X X X
* X X X X
* X X X X
* X X X X
* X X X X
* X X X X
* first 0
* time 900
* 1. b8(M) b1(c)
* 2. a4(P) c7(n)
* 3. b2(p) a6(C)
* 4. d6(K) b5(p)
* 5. d7(C) a7(m)
* 6. d1(r) c8(k)
* 7. d3(N) c5(m)
* 8. d4(p) c2(P)
* 9. d5(c) d8(r)
* 10. d2(R) a2(p)
* 11. b7(M) a5(G)
* 12. a1(n) b6(g)
* 13. a3(P) c4(G)
* 14. a8(N) c1(P)
* 15. b3(R) c3(g)
* 16. c6(p) b4(P)
* 17. d6-d5 c3-c2
* 18. d5-d6 c2-c3
* 19. d2-c2 d1-d2
* 20. d6-d5 d2-d1
* 21. d5-d6 d1-d2
* 22. d6-d5 d2-d1
* 23. d5-d6 d1-d2
* 24. d6-d5 d2-d1
* 25. d5-d6
* PositionRepetitionDraw,3,4 a1_lightzero Draw 0.500000,0.500000
* Comment 0 0
0. 1771415954798
1. 1771415954798
2. 1771415955984
3. 1771415956944
4. 1771415957889
5. 1771415958899
6. 1771415959844
7. 1771415960854
8. 1771415961798
9. 1771415962759
10. 1771415963702
11. 1771415964663
12. 1771415965606
13. 1771415966567
14. 1771415967560
15. 1771415968571
16. 1771415969565
17. 1771415970575
18. 1771415971569
19. 1771415972580
20. 1771415973573
21. 1771415974584
22. 1771415975577
23. 1771415976588
24. 1771415977580
25. 1771415978593
26. 1771415979635
27. 1771415980648
28. 1771415981639
29. 1771415982652
30. 1771415983643
31. 1771415984607
32. 1771415985647
33. 1771415986661
34. 1771415987652
35. 1771415988666
36. 1771415989657
37. 1771415990619
38. 1771415991612
39. 1771415992571
40. 1771415993517
41. 1771415994525
42. 1771415995523
43. 1771415996478
44. 1771415997427
45. 1771415998382
46. 1771415999332
47. 1771416000285
48. 1771416001237
49. 1771416002239

# 10 12 46 48 82 84 118 120 154 156 190 192 226 228 262 264 298 300 334 336 370 372 406 408 442 444 478 480 514 516 550 552 586 588 622 624 658 660 694 696 730 732 766 768 802 804 838 840 874 876 #
LightZero MGTP Interface Ready
=1 LightZero_DarkChess

=2 1.0.0

=7 

=15 

=14 

=12 b8 b8

[debug] move action_id=11, action=((0, 1), (0, 1)), 
[debug] current_player=1 (B), 
[debug] board[(0, 1)]=2, board[(0, 1)]=2, 
[debug] board state:
[[15  2 15 15]
 [15 15 15 15]
 [15 15 15 15]
 [15 15 15 15]
 [15 15 15 15]
 [15 15 15 15]
 [15 15 15 15]
 [15 15 15 15]], 

=11 

=16 

[debug] move action_id=319, action=((7, 1), (7, 1)), 
[debug] current_player=0 (R), 
[debug] board[(7, 1)]=12, board[(7, 1)]=12, 
[debug] board state:
[[15  2 15 15]
 [15 15 15 15]
 [15 15 15 15]
 [15 15 15 15]
 [15 15 15 15]
 [15 15 15 15]
 [15 15 15 15]
 [15 12 15 15]], 

=11 

=16 

=12 a4 a4

[debug] move action_id=176, action=((4, 0), (4, 0)), 
[debug] current_player=1 (B), 
[debug] board[(4, 0)]=6, board[(4, 0)]=6, 
[debug] board state:
[[15  2 15 15]
 [15 15 15 15]
 [15 15 15 15]
 [15 15 15 15]
 [ 6 15 15 15]
 [15 15 15 15]
 [15 15 15 15]
 [15 12 15 15]], 

=11 

=16 

[debug] move action_id=66, action=((1, 2), (1, 2)), 
[debug] current_player=0 (R), 
[debug] board[(1, 2)]=11, board[(1, 2)]=11, 
[debug] board state:
[[15  2 15 15]
 [15 15 11 15]
 [15 15 15 15]
 [15 15 15 15]
 [ 6 15 15 15]
 [15 15 15 15]
 [15 15 15 15]
 [15 12 15 15]], 

=11 

=16 

=12 b2 b2

[debug] move action_id=275, action=((6, 1), (6, 1)), 
[debug] current_player=1 (B), 
[debug] board[(6, 1)]=13, board[(6, 1)]=13, 
[debug] board state:
[[15  2 15 15]
 [15 15 11 15]
 [15 15 15 15]
 [15 15 15 15]
 [ 6 15 15 15]
 [15 15 15 15]
 [15 13 15 15]
 [15 12 15 15]], 

=11 

=16 

[debug] move action_id=88, action=((2, 0), (2, 0)), 
[debug] current_player=0 (R), 
[debug] board[(2, 0)]=5, board[(2, 0)]=5, 
[debug] board state:
[[15  2 15 15]
 [15 15 11 15]
 [ 5 15 15 15]
 [15 15 15 15]
 [ 6 15 15 15]
 [15 15 15 15]
 [15 13 15 15]
 [15 12 15 15]], 

=11 

=16 

=12 d6 d6

[debug] move action_id=121, action=((2, 3), (2, 3)), 
[debug] current_player=1 (B), 
[debug] board[(2, 3)]=0, board[(2, 3)]=0, 
[debug] board state:
[[15  2 15 15]
 [15 15 11 15]
 [ 5 15 15  0]
 [15 15 15 15]
 [ 6 15 15 15]
 [15 15 15 15]
 [15 13 15 15]
 [15 12 15 15]], 

=11 

=16 

[debug] move action_id=143, action=((3, 1), (3, 1)), 
[debug] current_player=0 (R), 
[debug] board[(3, 1)]=13, board[(3, 1)]=13, 
[debug] board state:
[[15  2 15 15]
 [15 15 11 15]
 [ 5 15 15  0]
 [15 13 15 15]
 [ 6 15 15 15]
 [15 15 15 15]
 [15 13 15 15]
 [15 12 15 15]], 

=11 

=16 

=12 d7 d7

[debug] move action_id=77, action=((1, 3), (1, 3)), 
[debug] current_player=1 (B), 
[debug] board[(1, 3)]=5, board[(1, 3)]=5, 
[debug] board state:
[[15  2 15 15]
 [15 15 11  5]
 [ 5 15 15  0]
 [15 13 15 15]
 [ 6 15 15 15]
 [15 15 15 15]
 [15 13 15 15]
 [15 12 15 15]], 

=11 

=16 

[debug] move action_id=44, action=((1, 0), (1, 0)), 
[debug] current_player=0 (R), 
[debug] board[(1, 0)]=9, board[(1, 0)]=9, 
[debug] board state:
[[15  2 15 15]
 [ 9 15 11  5]
 [ 5 15 15  0]
 [15 13 15 15]
 [ 6 15 15 15]
 [15 15 15 15]
 [15 13 15 15]
 [15 12 15 15]], 

=11 

=16 

=12 d1 d1

[debug] move action_id=341, action=((7, 3), (7, 3)), 
[debug] current_player=1 (B), 
[debug] board[(7, 3)]=10, board[(7, 3)]=10, 
[debug] board state:
[[15  2 15 15]
 [ 9 15 11  5]
 [ 5 15 15  0]
 [15 13 15 15]
 [ 6 15 15 15]
 [15 15 15 15]
 [15 13 15 15]
 [15 12 15 10]], 

=11 

=16 

[debug] move action_id=22, action=((0, 2), (0, 2)), 
[debug] current_player=0 (R), 
[debug] board[(0, 2)]=7, board[(0, 2)]=7, 
[debug] board state:
[[15  2  7 15]
 [ 9 15 11  5]
 [ 5 15 15  0]
 [15 13 15 15]
 [ 6 15 15 15]
 [15 15 15 15]
 [15 13 15 15]
 [15 12 15 10]], 

=11 

=16 

=12 d3 d3

[debug] move action_id=253, action=((5, 3), (5, 3)), 
[debug] current_player=1 (B), 
[debug] board[(5, 3)]=4, board[(5, 3)]=4, 
[debug] board state:
[[15  2  7 15]
 [ 9 15 11  5]
 [ 5 15 15  0]
 [15 13 15 15]
 [ 6 15 15 15]
 [15 15 15  4]
 [15 13 15 15]
 [15 12 15 10]], 

=11 

=16 

[debug] move action_id=154, action=((3, 2), (3, 2)), 
[debug] current_player=0 (R), 
[debug] board[(3, 2)]=9, board[(3, 2)]=9, 
[debug] board state:
[[15  2  7 15]
 [ 9 15 11  5]
 [ 5 15 15  0]
 [15 13  9 15]
 [ 6 15 15 15]
 [15 15 15  4]
 [15 13 15 15]
 [15 12 15 10]], 

=11 

=16 

=12 d4 d4

[debug] move action_id=209, action=((4, 3), (4, 3)), 
[debug] current_player=1 (B), 
[debug] board[(4, 3)]=13, board[(4, 3)]=13, 
[debug] board state:
[[15  2  7 15]
 [ 9 15 11  5]
 [ 5 15 15  0]
 [15 13  9 15]
 [ 6 15 15 13]
 [15 15 15  4]
 [15 13 15 15]
 [15 12 15 10]], 

=11 

=16 

[debug] move action_id=286, action=((6, 2), (6, 2)), 
[debug] current_player=0 (R), 
[debug] board[(6, 2)]=6, board[(6, 2)]=6, 
[debug] board state:
[[15  2  7 15]
 [ 9 15 11  5]
 [ 5 15 15  0]
 [15 13  9 15]
 [ 6 15 15 13]
 [15 15 15  4]
 [15 13  6 15]
 [15 12 15 10]], 

=11 

=16 

=12 d5 d5

[debug] move action_id=165, action=((3, 3), (3, 3)), 
[debug] current_player=1 (B), 
[debug] board[(3, 3)]=12, board[(3, 3)]=12, 
[debug] board state:
[[15  2  7 15]
 [ 9 15 11  5]
 [ 5 15 15  0]
 [15 13  9 12]
 [ 6 15 15 13]
 [15 15 15  4]
 [15 13  6 15]
 [15 12 15 10]], 

=11 

=16 

[debug] move action_id=33, action=((0, 3), (0, 3)), 
[debug] current_player=0 (R), 
[debug] board[(0, 3)]=10, board[(0, 3)]=10, 
[debug] board state:
[[15  2  7 10]
 [ 9 15 11  5]
 [ 5 15 15  0]
 [15 13  9 12]
 [ 6 15 15 13]
 [15 15 15  4]
 [15 13  6 15]
 [15 12 15 10]], 

=11 

=16 

=12 d2 d2

[debug] move action_id=297, action=((6, 3), (6, 3)), 
[debug] current_player=1 (B), 
[debug] board[(6, 3)]=3, board[(6, 3)]=3, 
[debug] board state:
[[15  2  7 10]
 [ 9 15 11  5]
 [ 5 15 15  0]
 [15 13  9 12]
 [ 6 15 15 13]
 [15 15 15  4]
 [15 13  6  3]
 [15 12 15 10]], 

=11 

=16 

[debug] move action_id=264, action=((6, 0), (6, 0)), 
[debug] current_player=0 (R), 
[debug] board[(6, 0)]=13, board[(6, 0)]=13, 
[debug] board state:
[[15  2  7 10]
 [ 9 15 11  5]
 [ 5 15 15  0]
 [15 13  9 12]
 [ 6 15 15 13]
 [15 15 15  4]
 [13 13  6  3]
 [15 12 15 10]], 

=11 

=16 

=12 b7 b7

[debug] move action_id=55, action=((1, 1), (1, 1)), 
[debug] current_player=1 (B), 
[debug] board[(1, 1)]=2, board[(1, 1)]=2, 
[debug] board state:
[[15  2  7 10]
 [ 9  2 11  5]
 [ 5 15 15  0]
 [15 13  9 12]
 [ 6 15 15 13]
 [15 15 15  4]
 [13 13  6  3]
 [15 12 15 10]], 

=11 

=16 

[debug] move action_id=132, action=((3, 0), (3, 0)), 
[debug] current_player=0 (R), 
[debug] board[(3, 0)]=1, board[(3, 0)]=1, 
[debug] board state:
[[15  2  7 10]
 [ 9  2 11  5]
 [ 5 15 15  0]
 [ 1 13  9 12]
 [ 6 15 15 13]
 [15 15 15  4]
 [13 13  6  3]
 [15 12 15 10]], 

=11 

=16 

=12 a1 a1

[debug] move action_id=308, action=((7, 0), (7, 0)), 
[debug] current_player=1 (B), 
[debug] board[(7, 0)]=11, board[(7, 0)]=11, 
[debug] board state:
[[15  2  7 10]
 [ 9  2 11  5]
 [ 5 15 15  0]
 [ 1 13  9 12]
 [ 6 15 15 13]
 [15 15 15  4]
 [13 13  6  3]
 [11 12 15 10]], 

=11 

=16 

[debug] move action_id=99, action=((2, 1), (2, 1)), 
[debug] current_player=0 (R), 
[debug] board[(2, 1)]=8, board[(2, 1)]=8, 
[debug] board state:
[[15  2  7 10]
 [ 9  2 11  5]
 [ 5  8 15  0]
 [ 1 13  9 12]
 [ 6 15 15 13]
 [15 15 15  4]
 [13 13  6  3]
 [11 12 15 10]], 

=11 

=16 

=12 a3 a3

[debug] move action_id=220, action=((5, 0), (5, 0)), 
[debug] current_player=1 (B), 
[debug] board[(5, 0)]=6, board[(5, 0)]=6, 
[debug] board state:
[[15  2  7 10]
 [ 9  2 11  5]
 [ 5  8 15  0]
 [ 1 13  9 12]
 [ 6 15 15 13]
 [ 6 15 15  4]
 [13 13  6  3]
 [11 12 15 10]], 

=11 

=16 

[debug] move action_id=198, action=((4, 2), (4, 2)), 
[debug] current_player=0 (R), 
[debug] board[(4, 2)]=1, board[(4, 2)]=1, 
[debug] board state:
[[15  2  7 10]
 [ 9  2 11  5]
 [ 5  8 15  0]
 [ 1 13  9 12]
 [ 6 15  1 13]
 [ 6 15 15  4]
 [13 13  6  3]
 [11 12 15 10]], 

=11 

=16 

=12 a8 a8

[debug] move action_id=0, action=((0, 0), (0, 0)), 
[debug] current_player=1 (B), 
[debug] board[(0, 0)]=4, board[(0, 0)]=4, 
[debug] board state:
[[ 4  2  7 10]
 [ 9  2 11  5]
 [ 5  8 15  0]
 [ 1 13  9 12]
 [ 6 15  1 13]
 [ 6 15 15  4]
 [13 13  6  3]
 [11 12 15 10]], 

=11 

=16 

[debug] move action_id=330, action=((7, 2), (7, 2)), 
[debug] current_player=0 (R), 
[debug] board[(7, 2)]=6, board[(7, 2)]=6, 
[debug] board state:
[[ 4  2  7 10]
 [ 9  2 11  5]
 [ 5  8 15  0]
 [ 1 13  9 12]
 [ 6 15  1 13]
 [ 6 15 15  4]
 [13 13  6  3]
 [11 12  6 10]], 

=11 

=16 

=12 b3 b3

[debug] move action_id=231, action=((5, 1), (5, 1)), 
[debug] current_player=1 (B), 
[debug] board[(5, 1)]=3, board[(5, 1)]=3, 
[debug] board state:
[[ 4  2  7 10]
 [ 9  2 11  5]
 [ 5  8 15  0]
 [ 1 13  9 12]
 [ 6 15  1 13]
 [ 6  3 15  4]
 [13 13  6  3]
 [11 12  6 10]], 

=11 

=16 

[debug] move action_id=242, action=((5, 2), (5, 2)), 
[debug] current_player=0 (R), 
[debug] board[(5, 2)]=8, board[(5, 2)]=8, 
[debug] board state:
[[ 4  2  7 10]
 [ 9  2 11  5]
 [ 5  8 15  0]
 [ 1 13  9 12]
 [ 6 15  1 13]
 [ 6  3  8  4]
 [13 13  6  3]
 [11 12  6 10]], 

=11 

=16 

=12 c6 c6

[debug] move action_id=110, action=((2, 2), (2, 2)), 
[debug] current_player=1 (B), 
[debug] board[(2, 2)]=13, board[(2, 2)]=13, 
[debug] board state:
[[ 4  2  7 10]
 [ 9  2 11  5]
 [ 5  8 13  0]
 [ 1 13  9 12]
 [ 6 15  1 13]
 [ 6  3  8  4]
 [13 13  6  3]
 [11 12  6 10]], 

=11 

=16 

[debug] move action_id=187, action=((4, 1), (4, 1)), 
[debug] current_player=0 (R), 
[debug] board[(4, 1)]=6, board[(4, 1)]=6, 
[debug] board state:
[[ 4  2  7 10]
 [ 9  2 11  5]
 [ 5  8 13  0]
 [ 1 13  9 12]
 [ 6  6  1 13]
 [ 6  3  8  4]
 [13 13  6  3]
 [11 12  6 10]], 

=11 

=16 

=12 d6 d5

[debug] move action_id=168, action=((2, 3), (3, 3)), 
[debug] current_player=1 (B), 
[debug] board[(2, 3)]=14, board[(3, 3)]=0, 
[debug] board state:
[[ 4  2  7 10]
 [ 9  2 11  5]
 [ 5  8 13 14]
 [ 1 13  9  0]
 [ 6  6  1 13]
 [ 6  3  8  4]
 [13 13  6  3]
 [11 12  6 10]], 

=10 

=16 

[debug] move action_id=292, action=((5, 2), (6, 2)), 
[debug] current_player=0 (R), 
[debug] board[(5, 2)]=14, board[(6, 2)]=8, 
[debug] board state:
[[ 4  2  7 10]
 [ 9  2 11  5]
 [ 5  8 13 14]
 [ 1 13  9  0]
 [ 6  6  1 13]
 [ 6  3 14  4]
 [13 13  8  3]
 [11 12  6 10]], 

=10 

=16 

=12 d5 d6

[debug] move action_id=124, action=((3, 3), (2, 3)), 
[debug] current_player=1 (B), 
[debug] board[(3, 3)]=14, board[(2, 3)]=0, 
[debug] board state:
[[ 4  2  7 10]
 [ 9  2 11  5]
 [ 5  8 13  0]
 [ 1 13  9 14]
 [ 6  6  1 13]
 [ 6  3 14  4]
 [13 13  8  3]
 [11 12  6 10]], 

=10 

=16 

[debug] move action_id=248, action=((6, 2), (5, 2)), 
[debug] current_player=0 (R), 
[debug] board[(6, 2)]=14, board[(5, 2)]=8, 
[debug] board state:
[[ 4  2  7 10]
 [ 9  2 11  5]
 [ 5  8 13  0]
 [ 1 13  9 14]
 [ 6  6  1 13]
 [ 6  3  8  4]
 [13 13 14  3]
 [11 12  6 10]], 

=10 

=16 

=12 d2 c2

[debug] move action_id=307, action=((6, 3), (6, 2)), 
[debug] current_player=1 (B), 
[debug] board[(6, 3)]=14, board[(6, 2)]=3, 
[debug] board state:
[[ 4  2  7 10]
 [ 9  2 11  5]
 [ 5  8 13  0]
 [ 1 13  9 14]
 [ 6  6  1 13]
 [ 6  3  8  4]
 [13 13  3 14]
 [11 12  6 10]], 

=10 

=16 

[debug] move action_id=304, action=((7, 3), (6, 3)), 
[debug] current_player=0 (R), 
[debug] board[(7, 3)]=14, board[(6, 3)]=10, 
[debug] board state:
[[ 4  2  7 10]
 [ 9  2 11  5]
 [ 5  8 13  0]
 [ 1 13  9 14]
 [ 6  6  1 13]
 [ 6  3  8  4]
 [13 13  3 10]
 [11 12  6 14]], 

=10 

=16 

=12 d6 d5

[debug] move action_id=168, action=((2, 3), (3, 3)), 
[debug] current_player=1 (B), 
[debug] board[(2, 3)]=14, board[(3, 3)]=0, 
[debug] board state:
[[ 4  2  7 10]
 [ 9  2 11  5]
 [ 5  8 13 14]
 [ 1 13  9  0]
 [ 6  6  1 13]
 [ 6  3  8  4]
 [13 13  3 10]
 [11 12  6 14]], 

=10 

=16 

[debug] move action_id=348, action=((6, 3), (7, 3)), 
[debug] current_player=0 (R), 
[debug] board[(6, 3)]=14, board[(7, 3)]=10, 
[debug] board state:
[[ 4  2  7 10]
 [ 9  2 11  5]
 [ 5  8 13 14]
 [ 1 13  9  0]
 [ 6  6  1 13]
 [ 6  3  8  4]
 [13 13  3 14]
 [11 12  6 10]], 

=10 

=16 

=12 d5 d6

[debug] move action_id=124, action=((3, 3), (2, 3)), 
[debug] current_player=1 (B), 
[debug] board[(3, 3)]=14, board[(2, 3)]=0, 
[debug] board state:
[[ 4  2  7 10]
 [ 9  2 11  5]
 [ 5  8 13  0]
 [ 1 13  9 14]
 [ 6  6  1 13]
 [ 6  3  8  4]
 [13 13  3 14]
 [11 12  6 10]], 

=10 

=16 

[debug] move action_id=304, action=((7, 3), (6, 3)), 
[debug] current_player=0 (R), 
[debug] board[(7, 3)]=14, board[(6, 3)]=10, 
[debug] board state:
[[ 4  2  7 10]
 [ 9  2 11  5]
 [ 5  8 13  0]
 [ 1 13  9 14]
 [ 6  6  1 13]
 [ 6  3  8  4]
 [13 13  3 10]
 [11 12  6 14]], 

=10 

=16 

=12 d6 d5

[debug] move action_id=168, action=((2, 3), (3, 3)), 
[debug] current_player=1 (B), 
[debug] board[(2, 3)]=14, board[(3, 3)]=0, 
[debug] board state:
[[ 4  2  7 10]
 [ 9  2 11  5]
 [ 5  8 13 14]
 [ 1 13  9  0]
 [ 6  6  1 13]
 [ 6  3  8  4]
 [13 13  3 10]
 [11 12  6 14]], 

=10 

=16 

[debug] move action_id=348, action=((6, 3), (7, 3)), 
[debug] current_player=0 (R), 
[debug] board[(6, 3)]=14, board[(7, 3)]=10, 
[debug] board state:
[[ 4  2  7 10]
 [ 9  2 11  5]
 [ 5  8 13 14]
 [ 1 13  9  0]
 [ 6  6  1 13]
 [ 6  3  8  4]
 [13 13  3 14]
 [11 12  6 10]], 

=10 

=16 

=12 d5 d6

[debug] move action_id=124, action=((3, 3), (2, 3)), 
[debug] current_player=1 (B), 
[debug] board[(3, 3)]=14, board[(2, 3)]=0, 
[debug] board state:
[[ 4  2  7 10]
 [ 9  2 11  5]
 [ 5  8 13  0]
 [ 1 13  9 14]
 [ 6  6  1 13]
 [ 6  3  8  4]
 [13 13  3 14]
 [11 12  6 10]], 

=10 

=16 

[debug] move action_id=304, action=((7, 3), (6, 3)), 
[debug] current_player=0 (R), 
[debug] board[(7, 3)]=14, board[(6, 3)]=10, 
[debug] board state:
[[ 4  2  7 10]
 [ 9  2 11  5]
 [ 5  8 13  0]
 [ 1 13  9 14]
 [ 6  6  1 13]
 [ 6  3  8  4]
 [13 13  3 10]
 [11 12  6 14]], 

=10 

=16 

=12 d6 d5

[debug] move action_id=168, action=((2, 3), (3, 3)), 
[debug] current_player=1 (B), 
[debug] board[(2, 3)]=14, board[(3, 3)]=0, 
[debug] board state:
[[ 4  2  7 10]
 [ 9  2 11  5]
 [ 5  8 13 14]
 [ 1 13  9  0]
 [ 6  6  1 13]
 [ 6  3  8  4]
 [13 13  3 10]
 [11 12  6 14]], 

=10 

=16 

[debug] move action_id=348, action=((6, 3), (7, 3)), 
[debug] current_player=0 (R), 
[debug] board[(6, 3)]=14, board[(7, 3)]=10, 
[debug] board state:
[[ 4  2  7 10]
 [ 9  2 11  5]
 [ 5  8 13 14]
 [ 1 13  9  0]
 [ 6  6  1 13]
 [ 6  3  8  4]
 [13 13  3 14]
 [11 12  6 10]], 

=10 

=16 

=12 d5 d6

[debug] move action_id=124, action=((3, 3), (2, 3)), 
[debug] current_player=1 (B), 
[debug] board[(3, 3)]=14, board[(2, 3)]=0, 
[debug] board state:
[[ 4  2  7 10]
 [ 9  2 11  5]
 [ 5  8 13  0]
 [ 1 13  9 14]
 [ 6  6  1 13]
 [ 6  3  8  4]
 [13 13  3 14]
 [11 12  6 10]], 

=10 

=16 


# 10 12 46 48 82 84 118 120 154 156 190 192 226 228 262 264 298 300 334 336 370 372 406 408 442 444 478 480 514 516 550 552 586 588 622 624 658 660 694 696 730 732 766 768 802 804 838 840 874 876 #
/home/ntcucsk201/anaconda3/envs/darkchess/lib/python3.10/site-packages/treevalue/tree/integration/torch.py:23: FutureWarning: `torch.utils._pytree._register_pytree_node` is deprecated. Please use `torch.utils._pytree.register_pytree_node` instead.
  register_for_torch(TreeValue)
/home/ntcucsk201/anaconda3/envs/darkchess/lib/python3.10/site-packages/treevalue/tree/integration/torch.py:24: FutureWarning: `torch.utils._pytree._register_pytree_node` is deprecated. Please use `torch.utils._pytree.register_pytree_node` instead.
  register_for_torch(FastTreeValue)
Gym has been unmaintained since 2022 and does not support NumPy 2.0 amongst other critical functionality.
Please upgrade to Gymnasium, the maintained drop-in replacement of Gym, or contact the authors of your software and request that they upgrade.
See the migration guide at https://gymnasium.farama.org/introduction/migration_guide/ for additional information.
[DEBUG] Config loaded successfully
/home/ntcucsk201/DarkChess/LightZero/zoo/board_games/darkchess/stochastic_muzero_mgtp.py:38: FutureWarning: You are using `torch.load` with `weights_only=False` (the current default value), which uses the default pickle module implicitly. It is possible to construct malicious pickle data which will execute arbitrary code during unpickling (See https://github.com/pytorch/pytorch/blob/main/SECURITY.md#untrusted-models for more details). In a future release, the default value for `weights_only` will be flipped to `True`. This limits the functions that could be executed during unpickling. Arbitrary objects will no longer be allowed to be loaded via this mode unless they are explicitly allowlisted by the user via `torch.serialization.add_safe_globals`. We recommend you start setting `weights_only=True` for any use case where you don't have full control of the loaded file. Please open an issue on GitHub for any issues related to this experimental feature.
  checkpoint = torch.load(model_path, map_location='cpu')
[DEBUG] Model moved to device: cuda:0

###
Account: a1_lightzero
Mode: MGTP
Path: /home/ntcucsk201/anaconda3/envs/darkchess/bin/python
Arg: /home/ntcucsk201/DarkChess/LightZero/zoo/board_games/darkchess/stochastic_muzero_mgtp.py -model_path /home/ntcucsk201/DarkChess/LightZero/zoo/board_games/darkchess/data_stochastic_mz/darkchess_stochastic_muzero_ns1000_upc50_rer0_bs512_260211_214044/ckpt/ckpt_best.pth.tar -config_path /home/ntcucsk201/DarkChess/LightZero/zoo/board_games/darkchess/data_stochastic_mz/darkchess_stochastic_muzero_ns1000_upc50_rer0_bs512_260211_214044/formatted_total_config.py
Name: LightZero_DarkChess
Version: 1.0.0
###
