INITIAL
* 8:1pm Feb 18, 2026
* a1_lightzero vs a0_mu
* 1 2 2 2 2 2 5 1 2 2 2 2 2 5
* X X X X
* X X X X
* X X X X
* X X X X
* X X X X
* X X X X
* X X X X
* X X X X
* first 1
* time 900
* 1. b8(k) b1(m)
* 2. a4(C) c7(N)
* 3. b2(p) a6(G)
* 4. d3(K) b5(P)
* 5. d8(n) a7(r)
* 6. d7(C) c5(c)
* 7. a1(g) c8(R)
* 8. d4(g) d6(P)
* 9. a2(c) d1(n)
* 10. b3(P) b6(M)
* 11. a3(p) c2(p)
* 12. b7(N) c6(P)
* 13. d2(p) a5(r)
* 14. a8(G) c4(R)
* 15. d5(M) c3(m)
* 16. b4(P) c1(p)
* 17. d8-d7 c8-d8
* 18. b8-b7 a8-b8
* 19. a7-a8 a6-a7
* 20. a5-a6 c7-d7
* 21. b7-c7 a7-b7
* 22. a6-a7 c6-c7
* 23. a7-a6 d3-d4
* 24. a6-a7 b3-b2
* 25. a7-a6 b4-b3
* 26. a6-a7 b3-b4
* 27. d2-d3 b4-b3
* 28. d1-d2 b3-b4
* 29. a7-a6 b4-b3
* 30. a6-a7 b3-b4
* 31. a7-a6 b4-b3
* 32. a6-a7 b3-b4
* 33. a7-a6 b4-b3
* 34. a6-a7
* PositionRepetitionDraw,3,4 a1_lightzero Draw 0.500000,0.500000
* Comment 0 0
0. 1771416074961
1. 1771416074961
2. 1771416076146
3. 1771416077107
4. 1771416078051
5. 1771416079062
6. 1771416080006
7. 1771416081017
8. 1771416081961
9. 1771416082972
10. 1771416083964
11. 1771416084927
12. 1771416085918
13. 1771416086930
14. 1771416087922
15. 1771416088934
16. 1771416089925
17. 1771416090938
18. 1771416091928
19. 1771416092942
20. 1771416093931
21. 1771416094946
22. 1771416095985
23. 1771416097000
24. 1771416098039
25. 1771416099054
26. 1771416100042
27. 1771416101057
28. 1771416102046
29. 1771416103060
30. 1771416104049
31. 1771416105064
32. 1771416106051
33. 1771416107067
34. 1771416108054
35. 1771416109021
36. 1771416110007
37. 1771416111026
38. 1771416112010
39. 1771416113029
40. 1771416114065
41. 1771416115033
42. 1771416116018
43. 1771416117036
44. 1771416118021
45. 1771416119040
46. 1771416120024
47. 1771416121045
48. 1771416122027
49. 1771416123048
50. 1771416124081
51. 1771416125102
52. 1771416126084
53. 1771416127107
54. 1771416128138
55. 1771416129161
56. 1771416130141
57. 1771416131165
58. 1771416132145
59. 1771416133169
60. 1771416134148
61. 1771416135172
62. 1771416136151
63. 1771416137174
64. 1771416138154
65. 1771416139178
66. 1771416140158
67. 1771416141181

# 10 12 46 48 82 84 118 120 154 156 190 192 226 228 262 264 298 300 334 336 370 372 406 408 442 444 478 480 514 516 550 552 586 588 622 624 658 660 694 696 730 732 766 768 802 804 838 840 874 876 910 912 946 948 982 984 1018 1020 1054 1056 1090 1092 1126 1128 1162 1164 1198 1200 #
LightZero MGTP Interface Ready
=1 LightZero_DarkChess

=2 1.0.0

=7 

=15 

=14 

=12 b8 b8

[debug] move action_id=11, action=((0, 1), (0, 1)), 
[debug] current_player=1 (R), 
[debug] board[(0, 1)]=7, board[(0, 1)]=7, 
[debug] board state:
[[15  7 15 15]
 [15 15 15 15]
 [15 15 15 15]
 [15 15 15 15]
 [15 15 15 15]
 [15 15 15 15]
 [15 15 15 15]
 [15 15 15 15]], 

=11 

=16 

[debug] move action_id=319, action=((7, 1), (7, 1)), 
[debug] current_player=0 (B), 
[debug] board[(7, 1)]=9, board[(7, 1)]=9, 
[debug] board state:
[[15  7 15 15]
 [15 15 15 15]
 [15 15 15 15]
 [15 15 15 15]
 [15 15 15 15]
 [15 15 15 15]
 [15 15 15 15]
 [15  9 15 15]], 

=11 

=16 

=12 a4 a4

[debug] move action_id=176, action=((4, 0), (4, 0)), 
[debug] current_player=1 (R), 
[debug] board[(4, 0)]=5, board[(4, 0)]=5, 
[debug] board state:
[[15  7 15 15]
 [15 15 15 15]
 [15 15 15 15]
 [15 15 15 15]
 [ 5 15 15 15]
 [15 15 15 15]
 [15 15 15 15]
 [15  9 15 15]], 

=11 

=16 

[debug] move action_id=66, action=((1, 2), (1, 2)), 
[debug] current_player=0 (B), 
[debug] board[(1, 2)]=4, board[(1, 2)]=4, 
[debug] board state:
[[15  7 15 15]
 [15 15  4 15]
 [15 15 15 15]
 [15 15 15 15]
 [ 5 15 15 15]
 [15 15 15 15]
 [15 15 15 15]
 [15  9 15 15]], 

=11 

=16 

=12 b2 b2

[debug] move action_id=275, action=((6, 1), (6, 1)), 
[debug] current_player=1 (R), 
[debug] board[(6, 1)]=13, board[(6, 1)]=13, 
[debug] board state:
[[15  7 15 15]
 [15 15  4 15]
 [15 15 15 15]
 [15 15 15 15]
 [ 5 15 15 15]
 [15 15 15 15]
 [15 13 15 15]
 [15  9 15 15]], 

=11 

=16 

[debug] move action_id=88, action=((2, 0), (2, 0)), 
[debug] current_player=0 (B), 
[debug] board[(2, 0)]=1, board[(2, 0)]=1, 
[debug] board state:
[[15  7 15 15]
 [15 15  4 15]
 [ 1 15 15 15]
 [15 15 15 15]
 [ 5 15 15 15]
 [15 15 15 15]
 [15 13 15 15]
 [15  9 15 15]], 

=11 

=16 

=12 d3 d3

[debug] move action_id=253, action=((5, 3), (5, 3)), 
[debug] current_player=1 (R), 
[debug] board[(5, 3)]=0, board[(5, 3)]=0, 
[debug] board state:
[[15  7 15 15]
 [15 15  4 15]
 [ 1 15 15 15]
 [15 15 15 15]
 [ 5 15 15 15]
 [15 15 15  0]
 [15 13 15 15]
 [15  9 15 15]], 

=11 

=16 

[debug] move action_id=143, action=((3, 1), (3, 1)), 
[debug] current_player=0 (B), 
[debug] board[(3, 1)]=6, board[(3, 1)]=6, 
[debug] board state:
[[15  7 15 15]
 [15 15  4 15]
 [ 1 15 15 15]
 [15  6 15 15]
 [ 5 15 15 15]
 [15 15 15  0]
 [15 13 15 15]
 [15  9 15 15]], 

=11 

=16 

=12 d8 d8

[debug] move action_id=33, action=((0, 3), (0, 3)), 
[debug] current_player=1 (R), 
[debug] board[(0, 3)]=11, board[(0, 3)]=11, 
[debug] board state:
[[15  7 15 11]
 [15 15  4 15]
 [ 1 15 15 15]
 [15  6 15 15]
 [ 5 15 15 15]
 [15 15 15  0]
 [15 13 15 15]
 [15  9 15 15]], 

=11 

=16 

[debug] move action_id=44, action=((1, 0), (1, 0)), 
[debug] current_player=0 (B), 
[debug] board[(1, 0)]=10, board[(1, 0)]=10, 
[debug] board state:
[[15  7 15 11]
 [10 15  4 15]
 [ 1 15 15 15]
 [15  6 15 15]
 [ 5 15 15 15]
 [15 15 15  0]
 [15 13 15 15]
 [15  9 15 15]], 

=11 

=16 

=12 d7 d7

[debug] move action_id=77, action=((1, 3), (1, 3)), 
[debug] current_player=1 (R), 
[debug] board[(1, 3)]=5, board[(1, 3)]=5, 
[debug] board state:
[[15  7 15 11]
 [10 15  4  5]
 [ 1 15 15 15]
 [15  6 15 15]
 [ 5 15 15 15]
 [15 15 15  0]
 [15 13 15 15]
 [15  9 15 15]], 

=11 

=16 

[debug] move action_id=154, action=((3, 2), (3, 2)), 
[debug] current_player=0 (B), 
[debug] board[(3, 2)]=12, board[(3, 2)]=12, 
[debug] board state:
[[15  7 15 11]
 [10 15  4  5]
 [ 1 15 15 15]
 [15  6 12 15]
 [ 5 15 15 15]
 [15 15 15  0]
 [15 13 15 15]
 [15  9 15 15]], 

=11 

=16 

=12 a1 a1

[debug] move action_id=308, action=((7, 0), (7, 0)), 
[debug] current_player=1 (R), 
[debug] board[(7, 0)]=8, board[(7, 0)]=8, 
[debug] board state:
[[15  7 15 11]
 [10 15  4  5]
 [ 1 15 15 15]
 [15  6 12 15]
 [ 5 15 15 15]
 [15 15 15  0]
 [15 13 15 15]
 [ 8  9 15 15]], 

=11 

=16 

[debug] move action_id=22, action=((0, 2), (0, 2)), 
[debug] current_player=0 (B), 
[debug] board[(0, 2)]=3, board[(0, 2)]=3, 
[debug] board state:
[[15  7  3 11]
 [10 15  4  5]
 [ 1 15 15 15]
 [15  6 12 15]
 [ 5 15 15 15]
 [15 15 15  0]
 [15 13 15 15]
 [ 8  9 15 15]], 

=11 

=16 

=12 d4 d4

[debug] move action_id=209, action=((4, 3), (4, 3)), 
[debug] current_player=1 (R), 
[debug] board[(4, 3)]=8, board[(4, 3)]=8, 
[debug] board state:
[[15  7  3 11]
 [10 15  4  5]
 [ 1 15 15 15]
 [15  6 12 15]
 [ 5 15 15  8]
 [15 15 15  0]
 [15 13 15 15]
 [ 8  9 15 15]], 

=11 

=16 

[debug] move action_id=121, action=((2, 3), (2, 3)), 
[debug] current_player=0 (B), 
[debug] board[(2, 3)]=6, board[(2, 3)]=6, 
[debug] board state:
[[15  7  3 11]
 [10 15  4  5]
 [ 1 15 15  6]
 [15  6 12 15]
 [ 5 15 15  8]
 [15 15 15  0]
 [15 13 15 15]
 [ 8  9 15 15]], 

=11 

=16 

=12 a2 a2

[debug] move action_id=264, action=((6, 0), (6, 0)), 
[debug] current_player=1 (R), 
[debug] board[(6, 0)]=12, board[(6, 0)]=12, 
[debug] board state:
[[15  7  3 11]
 [10 15  4  5]
 [ 1 15 15  6]
 [15  6 12 15]
 [ 5 15 15  8]
 [15 15 15  0]
 [12 13 15 15]
 [ 8  9 15 15]], 

=11 

=16 

[debug] move action_id=341, action=((7, 3), (7, 3)), 
[debug] current_player=0 (B), 
[debug] board[(7, 3)]=11, board[(7, 3)]=11, 
[debug] board state:
[[15  7  3 11]
 [10 15  4  5]
 [ 1 15 15  6]
 [15  6 12 15]
 [ 5 15 15  8]
 [15 15 15  0]
 [12 13 15 15]
 [ 8  9 15 11]], 

=11 

=16 

=12 b3 b3

[debug] move action_id=231, action=((5, 1), (5, 1)), 
[debug] current_player=1 (R), 
[debug] board[(5, 1)]=6, board[(5, 1)]=6, 
[debug] board state:
[[15  7  3 11]
 [10 15  4  5]
 [ 1 15 15  6]
 [15  6 12 15]
 [ 5 15 15  8]
 [15  6 15  0]
 [12 13 15 15]
 [ 8  9 15 11]], 

=11 

=16 

[debug] move action_id=99, action=((2, 1), (2, 1)), 
[debug] current_player=0 (B), 
[debug] board[(2, 1)]=2, board[(2, 1)]=2, 
[debug] board state:
[[15  7  3 11]
 [10 15  4  5]
 [ 1  2 15  6]
 [15  6 12 15]
 [ 5 15 15  8]
 [15  6 15  0]
 [12 13 15 15]
 [ 8  9 15 11]], 

=11 

=16 

=12 a3 a3

[debug] move action_id=220, action=((5, 0), (5, 0)), 
[debug] current_player=1 (R), 
[debug] board[(5, 0)]=13, board[(5, 0)]=13, 
[debug] board state:
[[15  7  3 11]
 [10 15  4  5]
 [ 1  2 15  6]
 [15  6 12 15]
 [ 5 15 15  8]
 [13  6 15  0]
 [12 13 15 15]
 [ 8  9 15 11]], 

=11 

=16 

[debug] move action_id=286, action=((6, 2), (6, 2)), 
[debug] current_player=0 (B), 
[debug] board[(6, 2)]=13, board[(6, 2)]=13, 
[debug] board state:
[[15  7  3 11]
 [10 15  4  5]
 [ 1  2 15  6]
 [15  6 12 15]
 [ 5 15 15  8]
 [13  6 15  0]
 [12 13 13 15]
 [ 8  9 15 11]], 

=11 

=16 

=12 b7 b7

[debug] move action_id=55, action=((1, 1), (1, 1)), 
[debug] current_player=1 (R), 
[debug] board[(1, 1)]=4, board[(1, 1)]=4, 
[debug] board state:
[[15  7  3 11]
 [10  4  4  5]
 [ 1  2 15  6]
 [15  6 12 15]
 [ 5 15 15  8]
 [13  6 15  0]
 [12 13 13 15]
 [ 8  9 15 11]], 

=11 

=16 

[debug] move action_id=110, action=((2, 2), (2, 2)), 
[debug] current_player=0 (B), 
[debug] board[(2, 2)]=6, board[(2, 2)]=6, 
[debug] board state:
[[15  7  3 11]
 [10  4  4  5]
 [ 1  2  6  6]
 [15  6 12 15]
 [ 5 15 15  8]
 [13  6 15  0]
 [12 13 13 15]
 [ 8  9 15 11]], 

=11 

=16 

=12 d2 d2

[debug] move action_id=297, action=((6, 3), (6, 3)), 
[debug] current_player=1 (R), 
[debug] board[(6, 3)]=13, board[(6, 3)]=13, 
[debug] board state:
[[15  7  3 11]
 [10  4  4  5]
 [ 1  2  6  6]
 [15  6 12 15]
 [ 5 15 15  8]
 [13  6 15  0]
 [12 13 13 13]
 [ 8  9 15 11]], 

=11 

=16 

[debug] move action_id=132, action=((3, 0), (3, 0)), 
[debug] current_player=0 (B), 
[debug] board[(3, 0)]=10, board[(3, 0)]=10, 
[debug] board state:
[[15  7  3 11]
 [10  4  4  5]
 [ 1  2  6  6]
 [10  6 12 15]
 [ 5 15 15  8]
 [13  6 15  0]
 [12 13 13 13]
 [ 8  9 15 11]], 

=11 

=16 

=12 a8 a8

[debug] move action_id=0, action=((0, 0), (0, 0)), 
[debug] current_player=1 (R), 
[debug] board[(0, 0)]=1, board[(0, 0)]=1, 
[debug] board state:
[[ 1  7  3 11]
 [10  4  4  5]
 [ 1  2  6  6]
 [10  6 12 15]
 [ 5 15 15  8]
 [13  6 15  0]
 [12 13 13 13]
 [ 8  9 15 11]], 

=11 

=16 

[debug] move action_id=198, action=((4, 2), (4, 2)), 
[debug] current_player=0 (B), 
[debug] board[(4, 2)]=3, board[(4, 2)]=3, 
[debug] board state:
[[ 1  7  3 11]
 [10  4  4  5]
 [ 1  2  6  6]
 [10  6 12 15]
 [ 5 15  3  8]
 [13  6 15  0]
 [12 13 13 13]
 [ 8  9 15 11]], 

=11 

=16 

=12 d5 d5

[debug] move action_id=165, action=((3, 3), (3, 3)), 
[debug] current_player=1 (R), 
[debug] board[(3, 3)]=2, board[(3, 3)]=2, 
[debug] board state:
[[ 1  7  3 11]
 [10  4  4  5]
 [ 1  2  6  6]
 [10  6 12  2]
 [ 5 15  3  8]
 [13  6 15  0]
 [12 13 13 13]
 [ 8  9 15 11]], 

=11 

=16 

[debug] move action_id=242, action=((5, 2), (5, 2)), 
[debug] current_player=0 (B), 
[debug] board[(5, 2)]=9, board[(5, 2)]=9, 
[debug] board state:
[[ 1  7  3 11]
 [10  4  4  5]
 [ 1  2  6  6]
 [10  6 12  2]
 [ 5 15  3  8]
 [13  6  9  0]
 [12 13 13 13]
 [ 8  9 15 11]], 

=11 

=16 

=12 b4 b4

[debug] move action_id=187, action=((4, 1), (4, 1)), 
[debug] current_player=1 (R), 
[debug] board[(4, 1)]=6, board[(4, 1)]=6, 
[debug] board state:
[[ 1  7  3 11]
 [10  4  4  5]
 [ 1  2  6  6]
 [10  6 12  2]
 [ 5  6  3  8]
 [13  6  9  0]
 [12 13 13 13]
 [ 8  9 15 11]], 

=11 

=16 

[debug] move action_id=330, action=((7, 2), (7, 2)), 
[debug] current_player=0 (B), 
[debug] board[(7, 2)]=13, board[(7, 2)]=13, 
[debug] board state:
[[ 1  7  3 11]
 [10  4  4  5]
 [ 1  2  6  6]
 [10  6 12  2]
 [ 5  6  3  8]
 [13  6  9  0]
 [12 13 13 13]
 [ 8  9 13 11]], 

=11 

=16 

=12 d8 d7

[debug] move action_id=78, action=((0, 3), (1, 3)), 
[debug] current_player=1 (R), 
[debug] board[(0, 3)]=14, board[(1, 3)]=11, 
[debug] board state:
[[ 1  7  3 14]
 [10  4  4 11]
 [ 1  2  6  6]
 [10  6 12  2]
 [ 5  6  3  8]
 [13  6  9  0]
 [12 13 13 13]
 [ 8  9 13 11]], 

=10 

=16 

[debug] move action_id=32, action=((0, 2), (0, 3)), 
[debug] current_player=0 (B), 
[debug] board[(0, 2)]=14, board[(0, 3)]=3, 
[debug] board state:
[[ 1  7 14  3]
 [10  4  4 11]
 [ 1  2  6  6]
 [10  6 12  2]
 [ 5  6  3  8]
 [13  6  9  0]
 [12 13 13 13]
 [ 8  9 13 11]], 

=10 

=16 

=12 b8 b7

[debug] move action_id=56, action=((0, 1), (1, 1)), 
[debug] current_player=1 (R), 
[debug] board[(0, 1)]=14, board[(1, 1)]=7, 
[debug] board state:
[[ 1 14 14  3]
 [10  7  4 11]
 [ 1  2  6  6]
 [10  6 12  2]
 [ 5  6  3  8]
 [13  6  9  0]
 [12 13 13 13]
 [ 8  9 13 11]], 

=10 

=16 

[debug] move action_id=8, action=((0, 0), (0, 1)), 
[debug] current_player=0 (B), 
[debug] board[(0, 0)]=14, board[(0, 1)]=1, 
[debug] board state:
[[14  1 14  3]
 [10  7  4 11]
 [ 1  2  6  6]
 [10  6 12  2]
 [ 5  6  3  8]
 [13  6  9  0]
 [12 13 13 13]
 [ 8  9 13 11]], 

=10 

=16 

=12 a7 a8

[debug] move action_id=1, action=((1, 0), (0, 0)), 
[debug] current_player=1 (R), 
[debug] board[(1, 0)]=14, board[(0, 0)]=10, 
[debug] board state:
[[10  1 14  3]
 [14  7  4 11]
 [ 1  2  6  6]
 [10  6 12  2]
 [ 5  6  3  8]
 [13  6  9  0]
 [12 13 13 13]
 [ 8  9 13 11]], 

=10 

=16 

[debug] move action_id=46, action=((2, 0), (1, 0)), 
[debug] current_player=0 (B), 
[debug] board[(2, 0)]=14, board[(1, 0)]=1, 
[debug] board state:
[[10  1 14  3]
 [ 1  7  4 11]
 [14  2  6  6]
 [10  6 12  2]
 [ 5  6  3  8]
 [13  6  9  0]
 [12 13 13 13]
 [ 8  9 13 11]], 

=10 

=16 

=12 a5 a6

[debug] move action_id=91, action=((3, 0), (2, 0)), 
[debug] current_player=1 (R), 
[debug] board[(3, 0)]=14, board[(2, 0)]=10, 
[debug] board state:
[[10  1 14  3]
 [ 1  7  4 11]
 [10  2  6  6]
 [14  6 12  2]
 [ 5  6  3  8]
 [13  6  9  0]
 [12 13 13 13]
 [ 8  9 13 11]], 

=10 

=16 

[debug] move action_id=76, action=((1, 2), (1, 3)), 
[debug] current_player=0 (B), 
[debug] board[(1, 2)]=14, board[(1, 3)]=4, 
[debug] board state:
[[10  1 14  3]
 [ 1  7 14  4]
 [10  2  6  6]
 [14  6 12  2]
 [ 5  6  3  8]
 [13  6  9  0]
 [12 13 13 13]
 [ 8  9 13 11]], 

=10 

=16 

=12 b7 c7

[debug] move action_id=64, action=((1, 1), (1, 2)), 
[debug] current_player=1 (R), 
[debug] board[(1, 1)]=14, board[(1, 2)]=7, 
[debug] board state:
[[10  1 14  3]
 [ 1 14  7  4]
 [10  2  6  6]
 [14  6 12  2]
 [ 5  6  3  8]
 [13  6  9  0]
 [12 13 13 13]
 [ 8  9 13 11]], 

=10 

=16 

[debug] move action_id=52, action=((1, 0), (1, 1)), 
[debug] current_player=0 (B), 
[debug] board[(1, 0)]=14, board[(1, 1)]=1, 
[debug] board state:
[[10  1 14  3]
 [14  1  7  4]
 [10  2  6  6]
 [14  6 12  2]
 [ 5  6  3  8]
 [13  6  9  0]
 [12 13 13 13]
 [ 8  9 13 11]], 

=10 

=16 

=12 a6 a7

[debug] move action_id=46, action=((2, 0), (1, 0)), 
[debug] current_player=1 (R), 
[debug] board[(2, 0)]=14, board[(1, 0)]=10, 
[debug] board state:
[[10  1 14  3]
 [10  1  7  4]
 [14  2  6  6]
 [14  6 12  2]
 [ 5  6  3  8]
 [13  6  9  0]
 [12 13 13 13]
 [ 8  9 13 11]], 

=10 

=16 

[debug] move action_id=68, action=((2, 2), (1, 2)), 
[debug] current_player=0 (B), 
[debug] board[(2, 2)]=14, board[(1, 2)]=6, 
[debug] board state:
[[10  1 14  3]
 [10  1  6  4]
 [14  2 14  6]
 [14  6 12  2]
 [ 5  6  3  8]
 [13  6  9  0]
 [12 13 13 13]
 [ 8  9 13 11]], 

=10 

=16 

=12 a7 a6

[debug] move action_id=90, action=((1, 0), (2, 0)), 
[debug] current_player=1 (R), 
[debug] board[(1, 0)]=14, board[(2, 0)]=10, 
[debug] board state:
[[10  1 14  3]
 [14  1  6  4]
 [10  2 14  6]
 [14  6 12  2]
 [ 5  6  3  8]
 [13  6  9  0]
 [12 13 13 13]
 [ 8  9 13 11]], 

=10 

=16 

[debug] move action_id=214, action=((5, 3), (4, 3)), 
[debug] current_player=0 (B), 
[debug] board[(5, 3)]=14, board[(4, 3)]=0, 
[debug] board state:
[[10  1 14  3]
 [14  1  6  4]
 [10  2 14  6]
 [14  6 12  2]
 [ 5  6  3  0]
 [13  6  9 14]
 [12 13 13 13]
 [ 8  9 13 11]], 

=10 

=16 

=12 a6 a7

[debug] move action_id=46, action=((2, 0), (1, 0)), 
[debug] current_player=1 (R), 
[debug] board[(2, 0)]=14, board[(1, 0)]=10, 
[debug] board state:
[[10  1 14  3]
 [10  1  6  4]
 [14  2 14  6]
 [14  6 12  2]
 [ 5  6  3  0]
 [13  6  9 14]
 [12 13 13 13]
 [ 8  9 13 11]], 

=10 

=16 

[debug] move action_id=281, action=((5, 1), (6, 1)), 
[debug] current_player=0 (B), 
[debug] board[(5, 1)]=14, board[(6, 1)]=6, 
[debug] board state:
[[10  1 14  3]
 [10  1  6  4]
 [14  2 14  6]
 [14  6 12  2]
 [ 5  6  3  0]
 [13 14  9 14]
 [12  6 13 13]
 [ 8  9 13 11]], 

=10 

=16 

=12 a7 a6

[debug] move action_id=90, action=((1, 0), (2, 0)), 
[debug] current_player=1 (R), 
[debug] board[(1, 0)]=14, board[(2, 0)]=10, 
[debug] board state:
[[10  1 14  3]
 [14  1  6  4]
 [10  2 14  6]
 [14  6 12  2]
 [ 5  6  3  0]
 [13 14  9 14]
 [12  6 13 13]
 [ 8  9 13 11]], 

=10 

=16 

[debug] move action_id=236, action=((4, 1), (5, 1)), 
[debug] current_player=0 (B), 
[debug] board[(4, 1)]=14, board[(5, 1)]=6, 
[debug] board state:
[[10  1 14  3]
 [14  1  6  4]
 [10  2 14  6]
 [14  6 12  2]
 [ 5 14  3  0]
 [13  6  9 14]
 [12  6 13 13]
 [ 8  9 13 11]], 

=10 

=16 

=12 a6 a7

[debug] move action_id=46, action=((2, 0), (1, 0)), 
[debug] current_player=1 (R), 
[debug] board[(2, 0)]=14, board[(1, 0)]=10, 
[debug] board state:
[[10  1 14  3]
 [10  1  6  4]
 [14  2 14  6]
 [14  6 12  2]
 [ 5 14  3  0]
 [13  6  9 14]
 [12  6 13 13]
 [ 8  9 13 11]], 

=10 

=16 

[debug] move action_id=192, action=((5, 1), (4, 1)), 
[debug] current_player=0 (B), 
[debug] board[(5, 1)]=14, board[(4, 1)]=6, 
[debug] board state:
[[10  1 14  3]
 [10  1  6  4]
 [14  2 14  6]
 [14  6 12  2]
 [ 5  6  3  0]
 [13 14  9 14]
 [12  6 13 13]
 [ 8  9 13 11]], 

=10 

=16 

=12 d2 d3

[debug] move action_id=259, action=((6, 3), (5, 3)), 
[debug] current_player=1 (R), 
[debug] board[(6, 3)]=14, board[(5, 3)]=13, 
[debug] board state:
[[10  1 14  3]
 [10  1  6  4]
 [14  2 14  6]
 [14  6 12  2]
 [ 5  6  3  0]
 [13 14  9 13]
 [12  6 13 14]
 [ 8  9 13 11]], 

=10 

=16 

[debug] move action_id=236, action=((4, 1), (5, 1)), 
[debug] current_player=0 (B), 
[debug] board[(4, 1)]=14, board[(5, 1)]=6, 
[debug] board state:
[[10  1 14  3]
 [10  1  6  4]
 [14  2 14  6]
 [14  6 12  2]
 [ 5 14  3  0]
 [13  6  9 13]
 [12  6 13 14]
 [ 8  9 13 11]], 

=10 

=16 

=12 d1 d2

[debug] move action_id=304, action=((7, 3), (6, 3)), 
[debug] current_player=1 (R), 
[debug] board[(7, 3)]=14, board[(6, 3)]=11, 
[debug] board state:
[[10  1 14  3]
 [10  1  6  4]
 [14  2 14  6]
 [14  6 12  2]
 [ 5 14  3  0]
 [13  6  9 13]
 [12  6 13 11]
 [ 8  9 13 14]], 

=10 

=16 

[debug] move action_id=192, action=((5, 1), (4, 1)), 
[debug] current_player=0 (B), 
[debug] board[(5, 1)]=14, board[(4, 1)]=6, 
[debug] board state:
[[10  1 14  3]
 [10  1  6  4]
 [14  2 14  6]
 [14  6 12  2]
 [ 5  6  3  0]
 [13 14  9 13]
 [12  6 13 11]
 [ 8  9 13 14]], 

=10 

=16 

=12 a7 a6

[debug] move action_id=90, action=((1, 0), (2, 0)), 
[debug] current_player=1 (R), 
[debug] board[(1, 0)]=14, board[(2, 0)]=10, 
[debug] board state:
[[10  1 14  3]
 [14  1  6  4]
 [10  2 14  6]
 [14  6 12  2]
 [ 5  6  3  0]
 [13 14  9 13]
 [12  6 13 11]
 [ 8  9 13 14]], 

=10 

=16 

[debug] move action_id=236, action=((4, 1), (5, 1)), 
[debug] current_player=0 (B), 
[debug] board[(4, 1)]=14, board[(5, 1)]=6, 
[debug] board state:
[[10  1 14  3]
 [14  1  6  4]
 [10  2 14  6]
 [14  6 12  2]
 [ 5 14  3  0]
 [13  6  9 13]
 [12  6 13 11]
 [ 8  9 13 14]], 

=10 

=16 

=12 a6 a7

[debug] move action_id=46, action=((2, 0), (1, 0)), 
[debug] current_player=1 (R), 
[debug] board[(2, 0)]=14, board[(1, 0)]=10, 
[debug] board state:
[[10  1 14  3]
 [10  1  6  4]
 [14  2 14  6]
 [14  6 12  2]
 [ 5 14  3  0]
 [13  6  9 13]
 [12  6 13 11]
 [ 8  9 13 14]], 

=10 

=16 

[debug] move action_id=192, action=((5, 1), (4, 1)), 
[debug] current_player=0 (B), 
[debug] board[(5, 1)]=14, board[(4, 1)]=6, 
[debug] board state:
[[10  1 14  3]
 [10  1  6  4]
 [14  2 14  6]
 [14  6 12  2]
 [ 5  6  3  0]
 [13 14  9 13]
 [12  6 13 11]
 [ 8  9 13 14]], 

=10 

=16 

=12 a7 a6

[debug] move action_id=90, action=((1, 0), (2, 0)), 
[debug] current_player=1 (R), 
