INITIAL
* 8:5pm Feb 18, 2026
* a0_mu vs a1_lightzero
* 1 2 2 2 2 2 5 1 2 2 2 2 2 5
* X X X X
* X X X X
* X X X X
* X X X X
* X X X X
* X X X X
* X X X X
* X X X X
* first 1
* time 900
* 1. b1(r) b8(c)
* 2. c7(R) a4(C)
* 3. a6(p) b2(N)
* 4. b5(c) d3(K)
* 5. d6(P) d7(P)
* 6. c5(P) a2(m)
* 7. a5(p) d8(r)
* 8. d2(p) d1(G)
* 9. c3(M) a7(m)
* 10. a3(C) c4(n)
* 11. d4(R) b3(N)
* 12. b7(p) a8(G)
* 13. c2(g) a1(P)
* 14. a2-a1 b4(g)
* 15. a1-a2 c6(n)
* 16. a2-a1 c1(P)
* 17. a1-a2 d1-d2
* 18. a2-a1 a8-b8
* 19. a1-a2 b8-b7
* 20. a2-a1 b2-a2
* 21. a1-a2 d5(M)
* 22. a2-b2 a3-a2
* 23. c8(p) a2-a1
* 24. b4-a4 b3-b4
* 25. a4-a3 b4-b3
* 26. c4-b4 b7-b8
* 27. b2-a2 b8-b7
* 28. a2-b2 b7-b8
* 29. b2-a2 b8-b7
* 30. a2-b2 b7-b8
* 31. b2-a2 b8-b7
* 32. a2-b2
* PositionRepetitionDraw,3,4 a0_mu Draw 0.500000,0.500000
* Comment 0 0
0. 1771416313688
1. 1771416313688
2. 1771416314877
3. 1771416315832
4. 1771416316832
5. 1771416317786
6. 1771416318738
7. 1771416319689
8. 1771416320693
9. 1771416321643
10. 1771416322648
11. 1771416323597
12. 1771416324603
13. 1771416325550
14. 1771416326558
15. 1771416327504
16. 1771416328512
17. 1771416329457
18. 1771416330466
19. 1771416331410
20. 1771416332420
21. 1771416333363
22. 1771416334374
23. 1771416335366
24. 1771416336377
25. 1771416337370
26. 1771416338381
27. 1771416339374
28. 1771416340385
29. 1771416341377
30. 1771416342389
31. 1771416343380
32. 1771416344393
33. 1771416345384
34. 1771416346396
35. 1771416347387
36. 1771416348399
37. 1771416349390
38. 1771416350403
39. 1771416351393
40. 1771416352406
41. 1771416353397
42. 1771416354410
43. 1771416355400
44. 1771416356413
45. 1771416357404
46. 1771416358417
47. 1771416359408
48. 1771416360421
49. 1771416361412
50. 1771416362425
51. 1771416363415
52. 1771416364429
53. 1771416365419
54. 1771416366433
55. 1771416367422
56. 1771416368436
57. 1771416369426
58. 1771416370391
59. 1771416371379
60. 1771416372393
61. 1771416373382
62. 1771416374397
63. 1771416375385

# 10 27 29 63 65 99 101 135 137 171 173 207 209 243 245 279 281 315 317 351 353 387 389 423 425 459 461 495 497 531 533 567 569 603 605 639 641 675 677 711 713 747 749 783 785 819 821 855 857 891 893 927 929 963 965 999 1001 1035 1037 1071 1073 1107 1109 #
LightZero MGTP Interface Ready
=1 LightZero_DarkChess

=2 1.0.0

=7 

=15 

=14 

[debug] move action_id=319, action=((7, 1), (7, 1)), 
[debug] current_player=1 (R), 
[debug] board[(7, 1)]=10, board[(7, 1)]=10, 
[debug] board state:
[[15 15 15 15]
 [15 15 15 15]
 [15 15 15 15]
 [15 15 15 15]
 [15 15 15 15]
 [15 15 15 15]
 [15 15 15 15]
 [15 10 15 15]], 

=11 

=16 

=12 b8 b8

[debug] move action_id=11, action=((0, 1), (0, 1)), 
[debug] current_player=0 (B), 
[debug] board[(0, 1)]=12, board[(0, 1)]=12, 
[debug] board state:
[[15 12 15 15]
 [15 15 15 15]
 [15 15 15 15]
 [15 15 15 15]
 [15 15 15 15]
 [15 15 15 15]
 [15 15 15 15]
 [15 10 15 15]], 

=11 

=16 

[debug] move action_id=66, action=((1, 2), (1, 2)), 
[debug] current_player=1 (R), 
[debug] board[(1, 2)]=3, board[(1, 2)]=3, 
[debug] board state:
[[15 12 15 15]
 [15 15  3 15]
 [15 15 15 15]
 [15 15 15 15]
 [15 15 15 15]
 [15 15 15 15]
 [15 15 15 15]
 [15 10 15 15]], 

=11 

=16 

=12 a4 a4

[debug] move action_id=176, action=((4, 0), (4, 0)), 
[debug] current_player=0 (B), 
[debug] board[(4, 0)]=5, board[(4, 0)]=5, 
[debug] board state:
[[15 12 15 15]
 [15 15  3 15]
 [15 15 15 15]
 [15 15 15 15]
 [ 5 15 15 15]
 [15 15 15 15]
 [15 15 15 15]
 [15 10 15 15]], 

=11 

=16 

[debug] move action_id=88, action=((2, 0), (2, 0)), 
[debug] current_player=1 (R), 
[debug] board[(2, 0)]=13, board[(2, 0)]=13, 
[debug] board state:
[[15 12 15 15]
 [15 15  3 15]
 [13 15 15 15]
 [15 15 15 15]
 [ 5 15 15 15]
 [15 15 15 15]
 [15 15 15 15]
 [15 10 15 15]], 

=11 

=16 

=12 b2 b2

[debug] move action_id=275, action=((6, 1), (6, 1)), 
[debug] current_player=0 (B), 
[debug] board[(6, 1)]=4, board[(6, 1)]=4, 
[debug] board state:
[[15 12 15 15]
 [15 15  3 15]
 [13 15 15 15]
 [15 15 15 15]
 [ 5 15 15 15]
 [15 15 15 15]
 [15  4 15 15]
 [15 10 15 15]], 

=11 

=16 

[debug] move action_id=143, action=((3, 1), (3, 1)), 
[debug] current_player=1 (R), 
[debug] board[(3, 1)]=12, board[(3, 1)]=12, 
[debug] board state:
[[15 12 15 15]
 [15 15  3 15]
 [13 15 15 15]
 [15 12 15 15]
 [ 5 15 15 15]
 [15 15 15 15]
 [15  4 15 15]
 [15 10 15 15]], 

=11 

=16 

=12 d3 d3

[debug] move action_id=253, action=((5, 3), (5, 3)), 
[debug] current_player=0 (B), 
[debug] board[(5, 3)]=0, board[(5, 3)]=0, 
[debug] board state:
[[15 12 15 15]
 [15 15  3 15]
 [13 15 15 15]
 [15 12 15 15]
 [ 5 15 15 15]
 [15 15 15  0]
 [15  4 15 15]
 [15 10 15 15]], 

=11 

=16 

[debug] move action_id=121, action=((2, 3), (2, 3)), 
[debug] current_player=1 (R), 
[debug] board[(2, 3)]=6, board[(2, 3)]=6, 
[debug] board state:
[[15 12 15 15]
 [15 15  3 15]
 [13 15 15  6]
 [15 12 15 15]
 [ 5 15 15 15]
 [15 15 15  0]
 [15  4 15 15]
 [15 10 15 15]], 

=11 

=16 

=12 d7 d7

[debug] move action_id=77, action=((1, 3), (1, 3)), 
[debug] current_player=0 (B), 
[debug] board[(1, 3)]=6, board[(1, 3)]=6, 
[debug] board state:
[[15 12 15 15]
 [15 15  3  6]
 [13 15 15  6]
 [15 12 15 15]
 [ 5 15 15 15]
 [15 15 15  0]
 [15  4 15 15]
 [15 10 15 15]], 

=11 

=16 

[debug] move action_id=154, action=((3, 2), (3, 2)), 
[debug] current_player=1 (R), 
[debug] board[(3, 2)]=6, board[(3, 2)]=6, 
[debug] board state:
[[15 12 15 15]
 [15 15  3  6]
 [13 15 15  6]
 [15 12  6 15]
 [ 5 15 15 15]
 [15 15 15  0]
 [15  4 15 15]
 [15 10 15 15]], 

=11 

=16 

=12 a2 a2

[debug] move action_id=264, action=((6, 0), (6, 0)), 
[debug] current_player=0 (B), 
[debug] board[(6, 0)]=9, board[(6, 0)]=9, 
[debug] board state:
[[15 12 15 15]
 [15 15  3  6]
 [13 15 15  6]
 [15 12  6 15]
 [ 5 15 15 15]
 [15 15 15  0]
 [ 9  4 15 15]
 [15 10 15 15]], 

=11 

=16 

[debug] move action_id=132, action=((3, 0), (3, 0)), 
[debug] current_player=1 (R), 
[debug] board[(3, 0)]=13, board[(3, 0)]=13, 
[debug] board state:
[[15 12 15 15]
 [15 15  3  6]
 [13 15 15  6]
 [13 12  6 15]
 [ 5 15 15 15]
 [15 15 15  0]
 [ 9  4 15 15]
 [15 10 15 15]], 

=11 

=16 

=12 d8 d8

[debug] move action_id=33, action=((0, 3), (0, 3)), 
[debug] current_player=0 (B), 
[debug] board[(0, 3)]=10, board[(0, 3)]=10, 
[debug] board state:
[[15 12 15 10]
 [15 15  3  6]
 [13 15 15  6]
 [13 12  6 15]
 [ 5 15 15 15]
 [15 15 15  0]
 [ 9  4 15 15]
 [15 10 15 15]], 

=11 

=16 

[debug] move action_id=297, action=((6, 3), (6, 3)), 
[debug] current_player=1 (R), 
[debug] board[(6, 3)]=13, board[(6, 3)]=13, 
[debug] board state:
[[15 12 15 10]
 [15 15  3  6]
 [13 15 15  6]
 [13 12  6 15]
 [ 5 15 15 15]
 [15 15 15  0]
 [ 9  4 15 13]
 [15 10 15 15]], 

=11 

=16 

=12 d1 d1

[debug] move action_id=341, action=((7, 3), (7, 3)), 
[debug] current_player=0 (B), 
[debug] board[(7, 3)]=1, board[(7, 3)]=1, 
[debug] board state:
[[15 12 15 10]
 [15 15  3  6]
 [13 15 15  6]
 [13 12  6 15]
 [ 5 15 15 15]
 [15 15 15  0]
 [ 9  4 15 13]
 [15 10 15  1]], 

=11 

=16 

[debug] move action_id=242, action=((5, 2), (5, 2)), 
[debug] current_player=1 (R), 
[debug] board[(5, 2)]=2, board[(5, 2)]=2, 
[debug] board state:
[[15 12 15 10]
 [15 15  3  6]
 [13 15 15  6]
 [13 12  6 15]
 [ 5 15 15 15]
 [15 15  2  0]
 [ 9  4 15 13]
 [15 10 15  1]], 

=11 

=16 

=12 a7 a7

[debug] move action_id=44, action=((1, 0), (1, 0)), 
[debug] current_player=0 (B), 
[debug] board[(1, 0)]=9, board[(1, 0)]=9, 
[debug] board state:
[[15 12 15 10]
 [ 9 15  3  6]
 [13 15 15  6]
 [13 12  6 15]
 [ 5 15 15 15]
 [15 15  2  0]
 [ 9  4 15 13]
 [15 10 15  1]], 

=11 

=16 

[debug] move action_id=220, action=((5, 0), (5, 0)), 
[debug] current_player=1 (R), 
[debug] board[(5, 0)]=5, board[(5, 0)]=5, 
[debug] board state:
[[15 12 15 10]
 [ 9 15  3  6]
 [13 15 15  6]
 [13 12  6 15]
 [ 5 15 15 15]
 [ 5 15  2  0]
 [ 9  4 15 13]
 [15 10 15  1]], 

=11 

=16 

=12 c4 c4

[debug] move action_id=198, action=((4, 2), (4, 2)), 
[debug] current_player=0 (B), 
[debug] board[(4, 2)]=11, board[(4, 2)]=11, 
[debug] board state:
[[15 12 15 10]
 [ 9 15  3  6]
 [13 15 15  6]
 [13 12  6 15]
 [ 5 15 11 15]
 [ 5 15  2  0]
 [ 9  4 15 13]
 [15 10 15  1]], 

=11 

=16 

[debug] move action_id=209, action=((4, 3), (4, 3)), 
[debug] current_player=1 (R), 
[debug] board[(4, 3)]=3, board[(4, 3)]=3, 
[debug] board state:
[[15 12 15 10]
 [ 9 15  3  6]
 [13 15 15  6]
 [13 12  6 15]
 [ 5 15 11  3]
 [ 5 15  2  0]
 [ 9  4 15 13]
 [15 10 15  1]], 

=11 

=16 

=12 b3 b3

[debug] move action_id=231, action=((5, 1), (5, 1)), 
[debug] current_player=0 (B), 
[debug] board[(5, 1)]=4, board[(5, 1)]=4, 
[debug] board state:
[[15 12 15 10]
 [ 9 15  3  6]
 [13 15 15  6]
 [13 12  6 15]
 [ 5 15 11  3]
 [ 5  4  2  0]
 [ 9  4 15 13]
 [15 10 15  1]], 

=11 

=16 

[debug] move action_id=55, action=((1, 1), (1, 1)), 
[debug] current_player=1 (R), 
[debug] board[(1, 1)]=13, board[(1, 1)]=13, 
[debug] board state:
[[15 12 15 10]
 [ 9 13  3  6]
 [13 15 15  6]
 [13 12  6 15]
 [ 5 15 11  3]
 [ 5  4  2  0]
 [ 9  4 15 13]
 [15 10 15  1]], 

=11 

=16 

=12 a8 a8

[debug] move action_id=0, action=((0, 0), (0, 0)), 
[debug] current_player=0 (B), 
[debug] board[(0, 0)]=1, board[(0, 0)]=1, 
[debug] board state:
[[ 1 12 15 10]
 [ 9 13  3  6]
 [13 15 15  6]
 [13 12  6 15]
 [ 5 15 11  3]
 [ 5  4  2  0]
 [ 9  4 15 13]
 [15 10 15  1]], 

=11 

=16 

[debug] move action_id=286, action=((6, 2), (6, 2)), 
[debug] current_player=1 (R), 
[debug] board[(6, 2)]=8, board[(6, 2)]=8, 
[debug] board state:
[[ 1 12 15 10]
 [ 9 13  3  6]
 [13 15 15  6]
 [13 12  6 15]
 [ 5 15 11  3]
 [ 5  4  2  0]
 [ 9  4  8 13]
 [15 10 15  1]], 

=11 

=16 

=12 a1 a1

[debug] move action_id=308, action=((7, 0), (7, 0)), 
[debug] current_player=0 (B), 
[debug] board[(7, 0)]=6, board[(7, 0)]=6, 
[debug] board state:
[[ 1 12 15 10]
 [ 9 13  3  6]
 [13 15 15  6]
 [13 12  6 15]
 [ 5 15 11  3]
 [ 5  4  2  0]
 [ 9  4  8 13]
 [ 6 10 15  1]], 

=11 

=16 

[debug] move action_id=315, action=((6, 0), (7, 0)), 
[debug] current_player=1 (R), 
[debug] board[(6, 0)]=14, board[(7, 0)]=9, 
[debug] board state:
[[ 1 12 15 10]
 [ 9 13  3  6]
 [13 15 15  6]
 [13 12  6 15]
 [ 5 15 11  3]
 [ 5  4  2  0]
 [14  4  8 13]
 [ 9 10 15  1]], 

=10 

=16 

=12 b4 b4

[debug] move action_id=187, action=((4, 1), (4, 1)), 
[debug] current_player=0 (B), 
[debug] board[(4, 1)]=8, board[(4, 1)]=8, 
[debug] board state:
[[ 1 12 15 10]
 [ 9 13  3  6]
 [13 15 15  6]
 [13 12  6 15]
 [ 5  8 11  3]
 [ 5  4  2  0]
 [14  4  8 13]
 [ 9 10 15  1]], 

=11 

=16 

[debug] move action_id=271, action=((7, 0), (6, 0)), 
[debug] current_player=1 (R), 
[debug] board[(7, 0)]=14, board[(6, 0)]=9, 
[debug] board state:
[[ 1 12 15 10]
 [ 9 13  3  6]
 [13 15 15  6]
 [13 12  6 15]
 [ 5  8 11  3]
 [ 5  4  2  0]
 [ 9  4  8 13]
 [14 10 15  1]], 

=10 

=16 

=12 c6 c6

[debug] move action_id=110, action=((2, 2), (2, 2)), 
[debug] current_player=0 (B), 
[debug] board[(2, 2)]=11, board[(2, 2)]=11, 
[debug] board state:
[[ 1 12 15 10]
 [ 9 13  3  6]
 [13 15 11  6]
 [13 12  6 15]
 [ 5  8 11  3]
 [ 5  4  2  0]
 [ 9  4  8 13]
 [14 10 15  1]], 

=11 

=16 

[debug] move action_id=315, action=((6, 0), (7, 0)), 
[debug] current_player=1 (R), 
[debug] board[(6, 0)]=14, board[(7, 0)]=9, 
[debug] board state:
[[ 1 12 15 10]
 [ 9 13  3  6]
 [13 15 11  6]
 [13 12  6 15]
 [ 5  8 11  3]
 [ 5  4  2  0]
 [14  4  8 13]
 [ 9 10 15  1]], 

=10 

=16 

=12 c1 c1

[debug] move action_id=330, action=((7, 2), (7, 2)), 
[debug] current_player=0 (B), 
[debug] board[(7, 2)]=6, board[(7, 2)]=6, 
[debug] board state:
[[ 1 12 15 10]
 [ 9 13  3  6]
 [13 15 11  6]
 [13 12  6 15]
 [ 5  8 11  3]
 [ 5  4  2  0]
 [14  4  8 13]
 [ 9 10  6  1]], 

=11 

=16 

[debug] move action_id=271, action=((7, 0), (6, 0)), 
[debug] current_player=1 (R), 
[debug] board[(7, 0)]=14, board[(6, 0)]=9, 
[debug] board state:
[[ 1 12 15 10]
 [ 9 13  3  6]
 [13 15 11  6]
 [13 12  6 15]
 [ 5  8 11  3]
 [ 5  4  2  0]
 [ 9  4  8 13]
 [14 10  6  1]], 

=10 

=16 

=12 d1 d2

[debug] move action_id=304, action=((7, 3), (6, 3)), 
[debug] current_player=0 (B), 
[debug] board[(7, 3)]=14, board[(6, 3)]=1, 
[debug] board state:
[[ 1 12 15 10]
 [ 9 13  3  6]
 [13 15 11  6]
 [13 12  6 15]
 [ 5  8 11  3]
 [ 5  4  2  0]
 [ 9  4  8  1]
 [14 10  6 14]], 

=10 

=16 

[debug] move action_id=315, action=((6, 0), (7, 0)), 
[debug] current_player=1 (R), 
[debug] board[(6, 0)]=14, board[(7, 0)]=9, 
[debug] board state:
[[ 1 12 15 10]
 [ 9 13  3  6]
 [13 15 11  6]
 [13 12  6 15]
 [ 5  8 11  3]
 [ 5  4  2  0]
 [14  4  8  1]
 [ 9 10  6 14]], 

=10 

=16 

=12 a8 b8

[debug] move action_id=8, action=((0, 0), (0, 1)), 
[debug] current_player=0 (B), 
[debug] board[(0, 0)]=14, board[(0, 1)]=1, 
[debug] board state:
[[14  1 15 10]
 [ 9 13  3  6]
 [13 15 11  6]
 [13 12  6 15]
 [ 5  8 11  3]
 [ 5  4  2  0]
 [14  4  8  1]
 [ 9 10  6 14]], 

=10 

=16 

[debug] move action_id=271, action=((7, 0), (6, 0)), 
[debug] current_player=1 (R), 
[debug] board[(7, 0)]=14, board[(6, 0)]=9, 
[debug] board state:
[[14  1 15 10]
 [ 9 13  3  6]
 [13 15 11  6]
 [13 12  6 15]
 [ 5  8 11  3]
 [ 5  4  2  0]
 [ 9  4  8  1]
 [14 10  6 14]], 

=10 

=16 

=12 b8 b7

[debug] move action_id=56, action=((0, 1), (1, 1)), 
[debug] current_player=0 (B), 
[debug] board[(0, 1)]=14, board[(1, 1)]=1, 
[debug] board state:
[[14 14 15 10]
 [ 9  1  3  6]
 [13 15 11  6]
 [13 12  6 15]
 [ 5  8 11  3]
 [ 5  4  2  0]
 [ 9  4  8  1]
 [14 10  6 14]], 

=10 

=16 

[debug] move action_id=315, action=((6, 0), (7, 0)), 
[debug] current_player=1 (R), 
[debug] board[(6, 0)]=14, board[(7, 0)]=9, 
[debug] board state:
[[14 14 15 10]
 [ 9  1  3  6]
 [13 15 11  6]
 [13 12  6 15]
 [ 5  8 11  3]
 [ 5  4  2  0]
 [14  4  8  1]
 [ 9 10  6 14]], 

=10 

=16 

=12 b2 a2

[debug] move action_id=283, action=((6, 1), (6, 0)), 
[debug] current_player=0 (B), 
[debug] board[(6, 1)]=14, board[(6, 0)]=4, 
[debug] board state:
[[14 14 15 10]
 [ 9  1  3  6]
 [13 15 11  6]
 [13 12  6 15]
 [ 5  8 11  3]
 [ 5  4  2  0]
 [ 4 14  8  1]
 [ 9 10  6 14]], 

=10 

=16 

[debug] move action_id=271, action=((7, 0), (6, 0)), 
[debug] current_player=1 (R), 
[debug] board[(7, 0)]=14, board[(6, 0)]=9, 
[debug] board state:
[[14 14 15 10]
 [ 9  1  3  6]
 [13 15 11  6]
 [13 12  6 15]
 [ 5  8 11  3]
 [ 5  4  2  0]
 [ 9 14  8  1]
 [14 10  6 14]], 

=10 

=16 

=12 d5 d5

[debug] move action_id=165, action=((3, 3), (3, 3)), 
[debug] current_player=0 (B), 
[debug] board[(3, 3)]=2, board[(3, 3)]=2, 
[debug] board state:
[[14 14 15 10]
 [ 9  1  3  6]
 [13 15 11  6]
 [13 12  6  2]
 [ 5  8 11  3]
 [ 5  4  2  0]
 [ 9 14  8  1]
 [14 10  6 14]], 

=11 

=16 

[debug] move action_id=272, action=((6, 0), (6, 1)), 
[debug] current_player=1 (R), 
[debug] board[(6, 0)]=14, board[(6, 1)]=9, 
[debug] board state:
[[14 14 15 10]
 [ 9  1  3  6]
 [13 15 11  6]
 [13 12  6  2]
 [ 5  8 11  3]
 [ 5  4  2  0]
 [14  9  8  1]
 [14 10  6 14]], 

=10 

=16 

=12 a3 a2

[debug] move action_id=270, action=((5, 0), (6, 0)), 
[debug] current_player=0 (B), 
[debug] board[(5, 0)]=14, board[(6, 0)]=5, 
[debug] board state:
[[14 14 15 10]
 [ 9  1  3  6]
 [13 15 11  6]
 [13 12  6  2]
 [ 5  8 11  3]
 [14  4  2  0]
 [ 5  9  8  1]
 [14 10  6 14]], 

=10 

=16 

[debug] move action_id=22, action=((0, 2), (0, 2)), 
[debug] current_player=1 (R), 
[debug] board[(0, 2)]=13, board[(0, 2)]=13, 
[debug] board state:
[[14 14 13 10]
 [ 9  1  3  6]
 [13 15 11  6]
 [13 12  6  2]
 [ 5  8 11  3]
 [14  4  2  0]
 [ 5  9  8  1]
 [14 10  6 14]], 

=11 

=16 

=12 a2 a1

[debug] move action_id=315, action=((6, 0), (7, 0)), 
[debug] current_player=0 (B), 
[debug] board[(6, 0)]=14, board[(7, 0)]=5, 
[debug] board state:
[[14 14 13 10]
 [ 9  1  3  6]
 [13 15 11  6]
 [13 12  6  2]
 [ 5  8 11  3]
 [14  4  2  0]
 [14  9  8  1]
 [ 5 10  6 14]], 

=10 

=16 

[debug] move action_id=195, action=((4, 1), (4, 0)), 
[debug] current_player=1 (R), 
[debug] board[(4, 1)]=14, board[(4, 0)]=8, 
[debug] board state:
[[14 14 13 10]
 [ 9  1  3  6]
 [13 15 11  6]
 [13 12  6  2]
 [ 8 14 11  3]
 [14  4  2  0]
 [14  9  8  1]
 [ 5 10  6 14]], 

=10 

=16 

=12 b3 b4

[debug] move action_id=192, action=((5, 1), (4, 1)), 
[debug] current_player=0 (B), 
[debug] board[(5, 1)]=14, board[(4, 1)]=4, 
[debug] board state:
[[14 14 13 10]
 [ 9  1  3  6]
 [13 15 11  6]
 [13 12  6  2]
 [ 8  4 11  3]
 [14 14  2  0]
 [14  9  8  1]
 [ 5 10  6 14]], 

=10 

=16 

[debug] move action_id=225, action=((4, 0), (5, 0)), 
[debug] current_player=1 (R), 
[debug] board[(4, 0)]=14, board[(5, 0)]=8, 
[debug] board state:
[[14 14 13 10]
 [ 9  1  3  6]
 [13 15 11  6]
 [13 12  6  2]
 [14  4 11  3]
 [ 8 14  2  0]
 [14  9  8  1]
 [ 5 10  6 14]], 

=10 

=16 

=12 b4 b3

[debug] move action_id=236, action=((4, 1), (5, 1)), 
[debug] current_player=0 (B), 
[debug] board[(4, 1)]=14, board[(5, 1)]=4, 
[debug] board state:
[[14 14 13 10]
 [ 9  1  3  6]
 [13 15 11  6]
 [13 12  6  2]
 [14 14 11  3]
 [ 8  4  2  0]
 [14  9  8  1]
 [ 5 10  6 14]], 

=10 

=16 

[debug] move action_id=207, action=((4, 2), (4, 1)), 
[debug] current_player=1 (R), 
[debug] board[(4, 2)]=14, board[(4, 1)]=11, 
[debug] board state:
[[14 14 13 10]
 [ 9  1  3  6]
 [13 15 11  6]
 [13 12  6  2]
 [14 11 14  3]
 [ 8  4  2  0]
 [14  9  8  1]
 [ 5 10  6 14]], 

=10 

=16 

=12 b7 b8

[debug] move action_id=12, action=((1, 1), (0, 1)), 
[debug] current_player=0 (B), 
[debug] board[(1, 1)]=14, board[(0, 1)]=1, 
[debug] board state:
[[14  1 13 10]
 [ 9 14  3  6]
 [13 15 11  6]
 [13 12  6  2]
 [14 11 14  3]
 [ 8  4  2  0]
 [14  9  8  1]
 [ 5 10  6 14]], 

=10 

=16 

[debug] move action_id=283, action=((6, 1), (6, 0)), 
[debug] current_player=1 (R), 
[debug] board[(6, 1)]=14, board[(6, 0)]=9, 
[debug] board state:
[[14  1 13 10]
 [ 9 14  3  6]
 [13 15 11  6]
 [13 12  6  2]
 [14 11 14  3]
 [ 8  4  2  0]
 [ 9 14  8  1]
 [ 5 10  6 14]], 

=10 

=16 

=12 b8 b7

[debug] move action_id=56, action=((0, 1), (1, 1)), 
[debug] current_player=0 (B), 
[debug] board[(0, 1)]=14, board[(1, 1)]=1, 
[debug] board state:
[[14 14 13 10]
 [ 9  1  3  6]
 [13 15 11  6]
 [13 12  6  2]
 [14 11 14  3]
 [ 8  4  2  0]
 [ 9 14  8  1]
 [ 5 10  6 14]], 

=10 

=16 

[debug] move action_id=272, action=((6, 0), (6, 1)), 
[debug] current_player=1 (R), 
[debug] board[(6, 0)]=14, board[(6, 1)]=9, 
[debug] board state:
[[14 14 13 10]
 [ 9  1  3  6]
 [13 15 11  6]
 [13 12  6  2]
 [14 11 14  3]
 [ 8  4  2  0]
 [14  9  8  1]
 [ 5 10  6 14]], 

=10 

=16 

=12 b7 b8

[debug] move action_id=12, action=((1, 1), (0, 1)), 
[debug] current_player=0 (B), 
[debug] board[(1, 1)]=14, board[(0, 1)]=1, 
[debug] board state:
[[14  1 13 10]
 [ 9 14  3  6]
 [13 15 11  6]
 [13 12  6  2]
 [14 11 14  3]
 [ 8  4  2  0]
 [14  9  8  1]
 [ 5 10  6 14]], 

=10 

=16 

[debug] move action_id=283, action=((6, 1), (6, 0)), 
[debug] current_player=1 (R), 
[debug] board[(6, 1)]=14, board[(6, 0)]=9, 
[debug] board state:
[[14  1 13 10]
 [ 9 14  3  6]
 [13 15 11  6]
 [13 12  6  2]
 [14 11 14  3]
 [ 8  4  2  0]
 [ 9 14  8  1]
 [ 5 10  6 14]], 

=10 

=16 

=12 b8 b7

[debug] move action_id=56, action=((0, 1), (1, 1)), 
[debug] current_player=0 (B), 
[debug] board[(0, 1)]=14, board[(1, 1)]=1, 
[debug] board state:
[[14 14 13 10]
 [ 9  1  3  6]
 [13 15 11  6]
 [13 12  6  2]
 [14 11 14  3]
 [ 8  4  2  0]
 [ 9 14  8  1]
 [ 5 10  6 14]], 

=10 

=16 

[debug] move action_id=272, action=((6, 0), (6, 1)), 
[debug] current_player=1 (R), 
[debug] board[(6, 0)]=14, board[(6, 1)]=9, 
[debug] board state:
[[14 14 13 10]
 [ 9  1  3  6]
 [13 15 11  6]
 [13 12  6  2]
 [14 11 14  3]
 [ 8  4  2  0]
 [14  9  8  1]
 [ 5 10  6 14]], 

=10 

=16 

=12 b7 b8

[debug] move action_id=12, action=((1, 1), (0, 1)), 
[debug] current_player=0 (B), 
[debug] board[(1, 1)]=14, board[(0, 1)]=1, 
[debug] board state:
[[14  1 13 10]
 [ 9 14  3  6]
 [13 15 11  6]
 [13 12  6  2]
 [14 11 14  3]
 [ 8  4  2  0]
 [14  9  8  1]
 [ 5 10  6 14]], 

=10 

=16 

[debug] move action_id=283, action=((6, 1), (6, 0)), 
[debug] current_player=1 (R), 
[debug] board[(6, 1)]=14, board[(6, 0)]=9, 
[debug] board state:
[[14  1 13 10]
 [ 9 14  3  6]
 [13 15 11  6]
 [13 12  6  2]
 [14 11 14  3]
