INITIAL
* 8:16pm Feb 18, 2026
* a0_mu vs a1_lightzero
* 1 2 2 2 2 2 5 1 2 2 2 2 2 5
* X X X X
* X X X X
* X X X X
* X X X X
* X X X X
* X X X X
* X X X X
* X X X X
* first 0
* time 900
* 1. b1(P) b8(N)
* 2. b5(p) a4(m)
* 3. a7(n) b2(R)
* 4. d6(p) d7(P)
* 5. c8(c) d3(n)
* 6. a5(G) d2(p)
* 7. a8(k) a1(P)
* 8. c4(g) b6(r)
* 9. c7(p) d1(m)
* 10. c3(r) b3(G)
* 11. d4(C) a3(g)
* 12. c2(P) a6(M)
* 13. c1(c) d5(p)
* 14. b4(K) c6(P)
* 15. c5(M) d8(R)
* 16. c5-b5 a2(N)
* 17. c6-c5 b7(C)
* 18. c5-d5 c4-c5
* 19. b4-c4 a4-b4
* 20. a5-a4 d6-c6
* 21. a4-b4 a3-a4
* 22. a6-a7 a4-a5
* 23. a7-a6 a8-a7
* 24. b4-a4 a7-a8
* 25. c4-b4 a8-a7
* 26. b4-c4 a7-a8
* 27. c4-b4 a8-a7
* 28. b4-c4 a7-a8
* 29. c4-b4 a8-a7
* 30. d4-c4 c5-b5
* 31. c4-c5 d3-d4
* 32. c5-c4 b5-c5
* 33. b4-b5 a7-a8
* 34. a6-a7 a5-a6
* 35. d7-d6 a6-a5
* 36. b5-b4 c5-b5
* 37. d6-d7 b5-c5
* 38. b4-b5 a5-a6
* 39. d7-d6 a6-a5
* 40. b5-b4 c5-b5
* 41. c4-c5 d4-d3
* 42. b4-c4 a5-a6
* 43. c4-b4 b5-a5
* 44. c5-b5 c6-c5
* 45. d6-d7 c5-c6
* 46. a4-a3 a5-a4
* 47. b4-c4 a4-b4
* 48. c4-c5 a6-a5
* 49. c5-c4 a5-a6
* 50. c4-c5 a6-a5
* 51. c5-c4 a5-a4
* 52. c4-c5 b4-c4
* 53. b3-b4 c4-d4
* 54. b4-b3 a4-b4
* 55. c5-c4 b6-a6
* 56. c4-c5 a6-a5
* 57. c5-c4 a5-a4
* 58. c4-c5 b4-c4
* 59. b3-b4 a4-a5
* 60. b4-b3 a5-a4
* 61. b3-b4 a4-a5
* 62. b4-b3 a5-a6
* 63. b7-b6 a6-a5
* 64. a7-b7 a8-a7
* 65. c5-c4 a5-a6
* 66. c4-d4 a6-a5
* 67. d4-c4 a5-a6
* 68. c4-d4 a6-a5
* 69. d4-c4 a5-a6
* 70. c4-d4 a6-a5
* 71. d4-c4 a5-a6
* 72. c4-d4
* PositionRepetitionDraw,3,4 a0_mu Draw 0.500000,0.500000
* Comment 0 0
0. 1771417001641
1. 1771417001641
2. 1771417002813
3. 1771417003786
4. 1771417004819
5. 1771417005790
6. 1771417006824
7. 1771417007794
8. 1771417008829
9. 1771417009798
10. 1771417010833
11. 1771417011804
12. 1771417012837
13. 1771417013809
14. 1771417014840
15. 1771417015814
16. 1771417016844
17. 1771417017820
18. 1771417018848
19. 1771417019826
20. 1771417020852
21. 1771417021832
22. 1771417022857
23. 1771417023837
24. 1771417024860
25. 1771417025843
26. 1771417026864
27. 1771417027848
28. 1771417028868
29. 1771417029904
30. 1771417030922
31. 1771417031909
32. 1771417032926
33. 1771417033914
34. 1771417034930
35. 1771417035920
36. 1771417036934
37. 1771417037926
38. 1771417038937
39. 1771417039881
40. 1771417040891
41. 1771417041837
42. 1771417042845
43. 1771417043793
44. 1771417044798
45. 1771417045748
46. 1771417046751
47. 1771417047702
48. 1771417048703
49. 1771417049655
50. 1771417050657
51. 1771417051609
52. 1771417052610
53. 1771417053563
54. 1771417054564
55. 1771417055518
56. 1771417056518
57. 1771417057523
58. 1771417058522
59. 1771417059477
60. 1771417060477
61. 1771417061434
62. 1771417062431
63. 1771417063386
64. 1771417064385
65. 1771417065341
66. 1771417066338
67. 1771417067295
68. 1771417068292
69. 1771417069248
70. 1771417070245
71. 1771417071203
72. 1771417072199
73. 1771417073157
74. 1771417074153
75. 1771417075111
76. 1771417076106
77. 1771417077065
78. 1771417078060
79. 1771417079020
80. 1771417080014
81. 1771417080976
82. 1771417082018
83. 1771417083031
84. 1771417084072
85. 1771417085036
86. 1771417086077
87. 1771417087041
88. 1771417088081
89. 1771417089046
90. 1771417090085
91. 1771417091049
92. 1771417092088
93. 1771417093053
94. 1771417094092
95. 1771417095057
96. 1771417096097
97. 1771417097110
98. 1771417098151
99. 1771417099113
100. 1771417100155
101. 1771417101167
102. 1771417102208
103. 1771417103221
104. 1771417104262
105. 1771417105274
106. 1771417106316
107. 1771417107278
108. 1771417108319
109. 1771417109282
110. 1771417110324
111. 1771417111285
112. 1771417112327
113. 1771417113339
114. 1771417114380
115. 1771417115342
116. 1771417116384
117. 1771417117345
118. 1771417118387
119. 1771417119348
120. 1771417120389
121. 1771417121352
122. 1771417122392
123. 1771417123356
124. 1771417124396
125. 1771417125359
126. 1771417126400
127. 1771417127362
128. 1771417128403
129. 1771417129367
130. 1771417130406
131. 1771417131370
132. 1771417132409
133. 1771417133375
134. 1771417134413
135. 1771417135379
136. 1771417136415
137. 1771417137382
138. 1771417138418
139. 1771417139386
140. 1771417140421
141. 1771417141390
142. 1771417142425
143. 1771417143445

# 10 27 29 63 65 99 101 135 137 171 173 207 209 243 245 279 281 315 317 351 353 387 389 423 425 459 461 495 497 531 533 567 569 603 605 639 641 675 677 711 713 747 749 783 785 819 821 855 857 891 893 927 929 963 965 999 1001 1035 1037 1071 1073 1107 1109 1143 1145 1179 1181 1215 1217 1251 1253 1287 1289 1323 1325 1359 1361 1395 1397 1431 1433 1467 1469 1503 1505 1539 1541 1575 1577 1611 1613 1647 1649 1683 1685 1719 1721 1755 1757 1791 1793 1827 1829 1863 1865 1899 1901 1935 1937 1971 1973 2007 2009 2043 2045 2079 2081 2115 2117 2151 2153 2187 2189 2223 2225 2259 2261 2295 2297 2331 2333 2367 2369 2403 2405 2439 2441 2475 2477 2511 2513 2547 2549 #
LightZero MGTP Interface Ready
=1 LightZero_DarkChess

=2 1.0.0

=7 

=15 

=14 

[debug] move action_id=319, action=((7, 1), (7, 1)), 
[debug] current_player=1 (B), 
[debug] board[(7, 1)]=6, board[(7, 1)]=6, 
[debug] board state:
[[15 15 15 15]
 [15 15 15 15]
 [15 15 15 15]
 [15 15 15 15]
 [15 15 15 15]
 [15 15 15 15]
 [15 15 15 15]
 [15  6 15 15]], 

=11 

=16 

=12 b8 b8

[debug] move action_id=11, action=((0, 1), (0, 1)), 
[debug] current_player=0 (R), 
[debug] board[(0, 1)]=4, board[(0, 1)]=4, 
[debug] board state:
[[15  4 15 15]
 [15 15 15 15]
 [15 15 15 15]
 [15 15 15 15]
 [15 15 15 15]
 [15 15 15 15]
 [15 15 15 15]
 [15  6 15 15]], 

=11 

=16 

[debug] move action_id=143, action=((3, 1), (3, 1)), 
[debug] current_player=1 (B), 
[debug] board[(3, 1)]=13, board[(3, 1)]=13, 
[debug] board state:
[[15  4 15 15]
 [15 15 15 15]
 [15 15 15 15]
 [15 13 15 15]
 [15 15 15 15]
 [15 15 15 15]
 [15 15 15 15]
 [15  6 15 15]], 

=11 

=16 

=12 a4 a4

[debug] move action_id=176, action=((4, 0), (4, 0)), 
[debug] current_player=0 (R), 
[debug] board[(4, 0)]=9, board[(4, 0)]=9, 
[debug] board state:
[[15  4 15 15]
 [15 15 15 15]
 [15 15 15 15]
 [15 13 15 15]
 [ 9 15 15 15]
 [15 15 15 15]
 [15 15 15 15]
 [15  6 15 15]], 

=11 

=16 

[debug] move action_id=44, action=((1, 0), (1, 0)), 
[debug] current_player=1 (B), 
[debug] board[(1, 0)]=11, board[(1, 0)]=11, 
[debug] board state:
[[15  4 15 15]
 [11 15 15 15]
 [15 15 15 15]
 [15 13 15 15]
 [ 9 15 15 15]
 [15 15 15 15]
 [15 15 15 15]
 [15  6 15 15]], 

=11 

=16 

=12 b2 b2

[debug] move action_id=275, action=((6, 1), (6, 1)), 
[debug] current_player=0 (R), 
[debug] board[(6, 1)]=3, board[(6, 1)]=3, 
[debug] board state:
[[15  4 15 15]
 [11 15 15 15]
 [15 15 15 15]
 [15 13 15 15]
 [ 9 15 15 15]
 [15 15 15 15]
 [15  3 15 15]
 [15  6 15 15]], 

=11 

=16 

[debug] move action_id=121, action=((2, 3), (2, 3)), 
[debug] current_player=1 (B), 
[debug] board[(2, 3)]=13, board[(2, 3)]=13, 
[debug] board state:
[[15  4 15 15]
 [11 15 15 15]
 [15 15 15 13]
 [15 13 15 15]
 [ 9 15 15 15]
 [15 15 15 15]
 [15  3 15 15]
 [15  6 15 15]], 

=11 

=16 

=12 d7 d7

[debug] move action_id=77, action=((1, 3), (1, 3)), 
[debug] current_player=0 (R), 
[debug] board[(1, 3)]=6, board[(1, 3)]=6, 
[debug] board state:
[[15  4 15 15]
 [11 15 15  6]
 [15 15 15 13]
 [15 13 15 15]
 [ 9 15 15 15]
 [15 15 15 15]
 [15  3 15 15]
 [15  6 15 15]], 

=11 

=16 

[debug] move action_id=22, action=((0, 2), (0, 2)), 
[debug] current_player=1 (B), 
[debug] board[(0, 2)]=12, board[(0, 2)]=12, 
[debug] board state:
[[15  4 12 15]
 [11 15 15  6]
 [15 15 15 13]
 [15 13 15 15]
 [ 9 15 15 15]
 [15 15 15 15]
 [15  3 15 15]
 [15  6 15 15]], 

=11 

=16 

=12 d3 d3

[debug] move action_id=253, action=((5, 3), (5, 3)), 
[debug] current_player=0 (R), 
[debug] board[(5, 3)]=11, board[(5, 3)]=11, 
[debug] board state:
[[15  4 12 15]
 [11 15 15  6]
 [15 15 15 13]
 [15 13 15 15]
 [ 9 15 15 15]
 [15 15 15 11]
 [15  3 15 15]
 [15  6 15 15]], 

=11 

=16 

[debug] move action_id=132, action=((3, 0), (3, 0)), 
[debug] current_player=1 (B), 
[debug] board[(3, 0)]=1, board[(3, 0)]=1, 
[debug] board state:
[[15  4 12 15]
 [11 15 15  6]
 [15 15 15 13]
 [ 1 13 15 15]
 [ 9 15 15 15]
 [15 15 15 11]
 [15  3 15 15]
 [15  6 15 15]], 

=11 

=16 

=12 d2 d2

[debug] move action_id=297, action=((6, 3), (6, 3)), 
[debug] current_player=0 (R), 
[debug] board[(6, 3)]=13, board[(6, 3)]=13, 
[debug] board state:
[[15  4 12 15]
 [11 15 15  6]
 [15 15 15 13]
 [ 1 13 15 15]
 [ 9 15 15 15]
 [15 15 15 11]
 [15  3 15 13]
 [15  6 15 15]], 

=11 

=16 

[debug] move action_id=0, action=((0, 0), (0, 0)), 
[debug] current_player=1 (B), 
[debug] board[(0, 0)]=7, board[(0, 0)]=7, 
[debug] board state:
[[ 7  4 12 15]
 [11 15 15  6]
 [15 15 15 13]
 [ 1 13 15 15]
 [ 9 15 15 15]
 [15 15 15 11]
 [15  3 15 13]
 [15  6 15 15]], 

=11 

=16 

=12 a1 a1

[debug] move action_id=308, action=((7, 0), (7, 0)), 
[debug] current_player=0 (R), 
[debug] board[(7, 0)]=6, board[(7, 0)]=6, 
[debug] board state:
[[ 7  4 12 15]
 [11 15 15  6]
 [15 15 15 13]
 [ 1 13 15 15]
 [ 9 15 15 15]
 [15 15 15 11]
 [15  3 15 13]
 [ 6  6 15 15]], 

=11 

=16 

[debug] move action_id=198, action=((4, 2), (4, 2)), 
[debug] current_player=1 (B), 
[debug] board[(4, 2)]=8, board[(4, 2)]=8, 
[debug] board state:
[[ 7  4 12 15]
 [11 15 15  6]
 [15 15 15 13]
 [ 1 13 15 15]
 [ 9 15  8 15]
 [15 15 15 11]
 [15  3 15 13]
 [ 6  6 15 15]], 

=11 

=16 

=12 b6 b6

[debug] move action_id=99, action=((2, 1), (2, 1)), 
[debug] current_player=0 (R), 
[debug] board[(2, 1)]=10, board[(2, 1)]=10, 
[debug] board state:
[[ 7  4 12 15]
 [11 15 15  6]
 [15 10 15 13]
 [ 1 13 15 15]
 [ 9 15  8 15]
 [15 15 15 11]
 [15  3 15 13]
 [ 6  6 15 15]], 

=11 

=16 

[debug] move action_id=66, action=((1, 2), (1, 2)), 
[debug] current_player=1 (B), 
[debug] board[(1, 2)]=13, board[(1, 2)]=13, 
[debug] board state:
[[ 7  4 12 15]
 [11 15 13  6]
 [15 10 15 13]
 [ 1 13 15 15]
 [ 9 15  8 15]
 [15 15 15 11]
 [15  3 15 13]
 [ 6  6 15 15]], 

=11 

=16 

=12 d1 d1

[debug] move action_id=341, action=((7, 3), (7, 3)), 
[debug] current_player=0 (R), 
[debug] board[(7, 3)]=9, board[(7, 3)]=9, 
[debug] board state:
[[ 7  4 12 15]
 [11 15 13  6]
 [15 10 15 13]
 [ 1 13 15 15]
 [ 9 15  8 15]
 [15 15 15 11]
 [15  3 15 13]
 [ 6  6 15  9]], 

=11 

=16 

[debug] move action_id=242, action=((5, 2), (5, 2)), 
[debug] current_player=1 (B), 
[debug] board[(5, 2)]=10, board[(5, 2)]=10, 
[debug] board state:
[[ 7  4 12 15]
 [11 15 13  6]
 [15 10 15 13]
 [ 1 13 15 15]
 [ 9 15  8 15]
 [15 15 10 11]
 [15  3 15 13]
 [ 6  6 15  9]], 

=11 

=16 

=12 b3 b3

[debug] move action_id=231, action=((5, 1), (5, 1)), 
[debug] current_player=0 (R), 
[debug] board[(5, 1)]=1, board[(5, 1)]=1, 
[debug] board state:
[[ 7  4 12 15]
 [11 15 13  6]
 [15 10 15 13]
 [ 1 13 15 15]
 [ 9 15  8 15]
 [15  1 10 11]
 [15  3 15 13]
 [ 6  6 15  9]], 

=11 

=16 

[debug] move action_id=209, action=((4, 3), (4, 3)), 
[debug] current_player=1 (B), 
[debug] board[(4, 3)]=5, board[(4, 3)]=5, 
[debug] board state:
[[ 7  4 12 15]
 [11 15 13  6]
 [15 10 15 13]
 [ 1 13 15 15]
 [ 9 15  8  5]
 [15  1 10 11]
 [15  3 15 13]
 [ 6  6 15  9]], 

=11 

=16 

=12 a3 a3

[debug] move action_id=220, action=((5, 0), (5, 0)), 
[debug] current_player=0 (R), 
[debug] board[(5, 0)]=8, board[(5, 0)]=8, 
[debug] board state:
[[ 7  4 12 15]
 [11 15 13  6]
 [15 10 15 13]
 [ 1 13 15 15]
 [ 9 15  8  5]
 [ 8  1 10 11]
 [15  3 15 13]
 [ 6  6 15  9]], 

=11 

=16 

[debug] move action_id=286, action=((6, 2), (6, 2)), 
[debug] current_player=1 (B), 
[debug] board[(6, 2)]=6, board[(6, 2)]=6, 
[debug] board state:
[[ 7  4 12 15]
 [11 15 13  6]
 [15 10 15 13]
 [ 1 13 15 15]
 [ 9 15  8  5]
 [ 8  1 10 11]
 [15  3  6 13]
 [ 6  6 15  9]], 

=11 

=16 

=12 a6 a6

[debug] move action_id=88, action=((2, 0), (2, 0)), 
[debug] current_player=0 (R), 
[debug] board[(2, 0)]=2, board[(2, 0)]=2, 
[debug] board state:
[[ 7  4 12 15]
 [11 15 13  6]
 [ 2 10 15 13]
 [ 1 13 15 15]
 [ 9 15  8  5]
 [ 8  1 10 11]
 [15  3  6 13]
 [ 6  6 15  9]], 

=11 

=16 

[debug] move action_id=330, action=((7, 2), (7, 2)), 
[debug] current_player=1 (B), 
[debug] board[(7, 2)]=12, board[(7, 2)]=12, 
[debug] board state:
[[ 7  4 12 15]
 [11 15 13  6]
 [ 2 10 15 13]
 [ 1 13 15 15]
 [ 9 15  8  5]
 [ 8  1 10 11]
 [15  3  6 13]
 [ 6  6 12  9]], 

=11 

=16 

=12 d5 d5

[debug] move action_id=165, action=((3, 3), (3, 3)), 
[debug] current_player=0 (R), 
[debug] board[(3, 3)]=13, board[(3, 3)]=13, 
[debug] board state:
[[ 7  4 12 15]
 [11 15 13  6]
 [ 2 10 15 13]
 [ 1 13 15 13]
 [ 9 15  8  5]
 [ 8  1 10 11]
 [15  3  6 13]
 [ 6  6 12  9]], 

=11 

=16 

[debug] move action_id=187, action=((4, 1), (4, 1)), 
[debug] current_player=1 (B), 
[debug] board[(4, 1)]=0, board[(4, 1)]=0, 
[debug] board state:
[[ 7  4 12 15]
 [11 15 13  6]
 [ 2 10 15 13]
 [ 1 13 15 13]
 [ 9  0  8  5]
 [ 8  1 10 11]
 [15  3  6 13]
 [ 6  6 12  9]], 

=11 

=16 

=12 c6 c6

[debug] move action_id=110, action=((2, 2), (2, 2)), 
[debug] current_player=0 (R), 
[debug] board[(2, 2)]=6, board[(2, 2)]=6, 
[debug] board state:
[[ 7  4 12 15]
 [11 15 13  6]
 [ 2 10  6 13]
 [ 1 13 15 13]
 [ 9  0  8  5]
 [ 8  1 10 11]
 [15  3  6 13]
 [ 6  6 12  9]], 

=11 

=16 

[debug] move action_id=154, action=((3, 2), (3, 2)), 
[debug] current_player=1 (B), 
[debug] board[(3, 2)]=2, board[(3, 2)]=2, 
[debug] board state:
[[ 7  4 12 15]
 [11 15 13  6]
 [ 2 10  6 13]
 [ 1 13  2 13]
 [ 9  0  8  5]
 [ 8  1 10 11]
 [15  3  6 13]
 [ 6  6 12  9]], 

=11 

=16 

=12 d8 d8

[debug] move action_id=33, action=((0, 3), (0, 3)), 
[debug] current_player=0 (R), 
[debug] board[(0, 3)]=3, board[(0, 3)]=3, 
[debug] board state:
[[ 7  4 12  3]
 [11 15 13  6]
 [ 2 10  6 13]
 [ 1 13  2 13]
 [ 9  0  8  5]
 [ 8  1 10 11]
 [15  3  6 13]
 [ 6  6 12  9]], 

=11 

=16 

[debug] move action_id=163, action=((3, 2), (3, 1)), 
[debug] current_player=1 (B), 
[debug] board[(3, 2)]=14, board[(3, 1)]=2, 
[debug] board state:
[[ 7  4 12  3]
 [11 15 13  6]
 [ 2 10  6 13]
 [ 1  2 14 13]
 [ 9  0  8  5]
 [ 8  1 10 11]
 [15  3  6 13]
 [ 6  6 12  9]], 

=10 

=16 

=12 a2 a2

[debug] move action_id=264, action=((6, 0), (6, 0)), 
[debug] current_player=0 (R), 
[debug] board[(6, 0)]=4, board[(6, 0)]=4, 
[debug] board state:
[[ 7  4 12  3]
 [11 15 13  6]
 [ 2 10  6 13]
 [ 1  2 14 13]
 [ 9  0  8  5]
 [ 8  1 10 11]
 [ 4  3  6 13]
 [ 6  6 12  9]], 

=11 

=16 

[debug] move action_id=157, action=((2, 2), (3, 2)), 
[debug] current_player=1 (B), 
[debug] board[(2, 2)]=14, board[(3, 2)]=6, 
[debug] board state:
[[ 7  4 12  3]
 [11 15 13  6]
 [ 2 10 14 13]
 [ 1  2  6 13]
 [ 9  0  8  5]
 [ 8  1 10 11]
 [ 4  3  6 13]
 [ 6  6 12  9]], 

=10 

=16 

=12 b7 b7

[debug] move action_id=55, action=((1, 1), (1, 1)), 
[debug] current_player=0 (R), 
[debug] board[(1, 1)]=5, board[(1, 1)]=5, 
[debug] board state:
[[ 7  4 12  3]
 [11  5 13  6]
 [ 2 10 14 13]
 [ 1  2  6 13]
 [ 9  0  8  5]
 [ 8  1 10 11]
 [ 4  3  6 13]
 [ 6  6 12  9]], 

=11 

=16 

[debug] move action_id=164, action=((3, 2), (3, 3)), 
[debug] current_player=1 (B), 
[debug] board[(3, 2)]=14, board[(3, 3)]=6, 
[debug] board state:
[[ 7  4 12  3]
 [11  5 13  6]
 [ 2 10 14 13]
 [ 1  2 14  6]
 [ 9  0  8  5]
 [ 8  1 10 11]
 [ 4  3  6 13]
 [ 6  6 12  9]], 

=10 

=16 

=12 c4 c5

[debug] move action_id=158, action=((4, 2), (3, 2)), 
[debug] current_player=0 (R), 
[debug] board[(4, 2)]=14, board[(3, 2)]=8, 
[debug] board state:
[[ 7  4 12  3]
 [11  5 13  6]
 [ 2 10 14 13]
 [ 1  2  8  6]
 [ 9  0 14  5]
 [ 8  1 10 11]
 [ 4  3  6 13]
 [ 6  6 12  9]], 

=10 

=16 

[debug] move action_id=196, action=((4, 1), (4, 2)), 
[debug] current_player=1 (B), 
[debug] board[(4, 1)]=14, board[(4, 2)]=0, 
[debug] board state:
[[ 7  4 12  3]
 [11  5 13  6]
 [ 2 10 14 13]
 [ 1  2  8  6]
 [ 9 14  0  5]
 [ 8  1 10 11]
 [ 4  3  6 13]
 [ 6  6 12  9]], 

=10 

=16 

=12 a4 b4

[debug] move action_id=184, action=((4, 0), (4, 1)), 
[debug] current_player=0 (R), 
[debug] board[(4, 0)]=14, board[(4, 1)]=9, 
[debug] board state:
[[ 7  4 12  3]
 [11  5 13  6]
 [ 2 10 14 13]
 [ 1  2  8  6]
 [14  9  0  5]
 [ 8  1 10 11]
 [ 4  3  6 13]
 [ 6  6 12  9]], 

=10 

=16 

[debug] move action_id=180, action=((3, 0), (4, 0)), 
[debug] current_player=1 (B), 
[debug] board[(3, 0)]=14, board[(4, 0)]=1, 
[debug] board state:
[[ 7  4 12  3]
 [11  5 13  6]
 [ 2 10 14 13]
 [14  2  8  6]
 [ 1  9  0  5]
 [ 8  1 10 11]
 [ 4  3  6 13]
 [ 6  6 12  9]], 

=10 

=16 

=12 d6 c6

[debug] move action_id=131, action=((2, 3), (2, 2)), 
[debug] current_player=0 (R), 
[debug] board[(2, 3)]=14, board[(2, 2)]=13, 
[debug] board state:
[[ 7  4 12  3]
 [11  5 13  6]
 [ 2 10 13 14]
 [14  2  8  6]
 [ 1  9  0  5]
 [ 8  1 10 11]
 [ 4  3  6 13]
 [ 6  6 12  9]], 

=10 

=16 

[debug] move action_id=184, action=((4, 0), (4, 1)), 
[debug] current_player=1 (B), 
[debug] board[(4, 0)]=14, board[(4, 1)]=1, 
[debug] board state:
[[ 7  4 12  3]
 [11  5 13  6]
 [ 2 10 13 14]
 [14  2  8  6]
 [14  1  0  5]
 [ 8  1 10 11]
 [ 4  3  6 13]
 [ 6  6 12  9]], 

=10 

=16 

=12 a3 a4

[debug] move action_id=181, action=((5, 0), (4, 0)), 
[debug] current_player=0 (R), 
[debug] board[(5, 0)]=14, board[(4, 0)]=8, 
[debug] board state:
[[ 7  4 12  3]
 [11  5 13  6]
 [ 2 10 13 14]
 [14  2  8  6]
 [ 8  1  0  5]
 [14  1 10 11]
 [ 4  3  6 13]
 [ 6  6 12  9]], 

=10 

=16 

[debug] move action_id=46, action=((2, 0), (1, 0)), 
[debug] current_player=1 (B), 
[debug] board[(2, 0)]=14, board[(1, 0)]=2, 
[debug] board state:
[[ 7  4 12  3]
 [ 2  5 13  6]
 [14 10 13 14]
 [14  2  8  6]
 [ 8  1  0  5]
 [14  1 10 11]
 [ 4  3  6 13]
 [ 6  6 12  9]], 

=10 

=16 

=12 a4 a5

[debug] move action_id=136, action=((4, 0), (3, 0)), 
[debug] current_player=0 (R), 
[debug] board[(4, 0)]=14, board[(3, 0)]=8, 
[debug] board state:
[[ 7  4 12  3]
 [ 2  5 13  6]
 [14 10 13 14]
 [ 8  2  8  6]
 [14  1  0  5]
 [14  1 10 11]
 [ 4  3  6 13]
 [ 6  6 12  9]], 

=10 

=16 

[debug] move action_id=90, action=((1, 0), (2, 0)), 
[debug] current_player=1 (B), 
[debug] board[(1, 0)]=14, board[(2, 0)]=2, 
[debug] board state:
[[ 7  4 12  3]
 [14  5 13  6]
 [ 2 10 13 14]
 [ 8  2  8  6]
 [14  1  0  5]
 [14  1 10 11]
 [ 4  3  6 13]
 [ 6  6 12  9]], 

=10 

=16 

=12 a8 a7

[debug] move action_id=45, action=((0, 0), (1, 0)), 
[debug] current_player=0 (R), 
[debug] board[(0, 0)]=14, board[(1, 0)]=7, 
[debug] board state:
[[14  4 12  3]
 [ 7  5 13  6]
 [ 2 10 13 14]
 [ 8  2  8  6]
 [14  1  0  5]
 [14  1 10 11]
 [ 4  3  6 13]
 [ 6  6 12  9]], 

=10 

=16 

[debug] move action_id=195, action=((4, 1), (4, 0)), 
[debug] current_player=1 (B), 
[debug] board[(4, 1)]=14, board[(4, 0)]=1, 
[debug] board state:
[[14  4 12  3]
 [ 7  5 13  6]
 [ 2 10 13 14]
 [ 8  2  8  6]
 [ 1 14  0  5]
 [14  1 10 11]
 [ 4  3  6 13]
 [ 6  6 12  9]], 

=10 

=16 

=12 a7 a8

[debug] move action_id=1, action=((1, 0), (0, 0)), 
[debug] current_player=0 (R), 
[debug] board[(1, 0)]=14, board[(0, 0)]=7, 
[debug] board state:
[[ 7  4 12  3]
 [14  5 13  6]
 [ 2 10 13 14]
 [ 8  2  8  6]
 [ 1 14  0  5]
 [14  1 10 11]
 [ 4  3  6 13]
 [ 6  6 12  9]], 

=10 

=16 

[debug] move action_id=207, action=((4, 2), (4, 1)), 
[debug] current_player=1 (B), 
[debug] board[(4, 2)]=14, board[(4, 1)]=0, 
[debug] board state:
[[ 7  4 12  3]
 [14  5 13  6]
 [ 2 10 13 14]
 [ 8  2  8  6]
 [ 1  0 14  5]
 [14  1 10 11]
 [ 4  3  6 13]
 [ 6  6 12  9]], 

=10 

=16 

=12 a8 a7

[debug] move action_id=45, action=((0, 0), (1, 0)), 
[debug] current_player=0 (R), 
[debug] board[(0, 0)]=14, board[(1, 0)]=7, 
[debug] board state:
[[14  4 12  3]
 [ 7  5 13  6]
 [ 2 10 13 14]
 [ 8  2  8  6]
 [ 1  0 14  5]
 [14  1 10 11]
 [ 4  3  6 13]
 [ 6  6 12  9]], 

=10 

=16 

[debug] move action_id=196, action=((4, 1), (4, 2)), 
[debug] current_player=1 (B), 
[debug] board[(4, 1)]=14, board[(4, 2)]=0, 
[debug] board state:
[[14  4 12  3]
 [ 7  5 13  6]
 [ 2 10 13 14]
 [ 8  2  8  6]
 [ 1 14  0  5]
 [14  1 10 11]
 [ 4  3  6 13]
 [ 6  6 12  9]], 

=10 

=16 

=12 a7 a8

[debug] move action_id=1, action=((1, 0), (0, 0)), 
[debug] current_player=0 (R), 
[debug] board[(1, 0)]=14, board[(0, 0)]=7, 
[debug] board state:
[[ 7  4 12  3]
 [14  5 13  6]
 [ 2 10 13 14]
 [ 8  2  8  6]
 [ 1 14  0  5]
 [14  1 10 11]
