INITIAL
* 8:24pm Feb 18, 2026
* a0_mu vs a1_lightzero
* 1 2 2 2 2 2 5 1 2 2 2 2 2 5
* X X X X
* X X X X
* X X X X
* X X X X
* X X X X
* X X X X
* X X X X
* X X X X
* first 0
* time 900
* 1. b1(P) b8(r)
* 2. c7(m) a4(P)
* 3. a6(N) d3(K)
* 4. d8(C) a5(r)
* 5. c8(P) b2(G)
* 6. d6(c) c5(g)
* 7. d7(p) b6(k)
* 8. a3(n) d1(p)
* 9. c2(R) a2(C)
* 10. a7(p) d5(M)
* 11. c3(n) b7(g)
* 12. c6(c) d2(R)
* 13. a8(p) a1(M)
* 14. c4(G) d4(N)
* 15. b4(p) b3(P)
* 16. c1(P) b5(m)
* 17. d2-d1 c5-d5
* 18. c4-b4 d5-c5
* 19. b4-c4 c5-d5
* 20. a4-b4 d5-c5
* 21. d3-d2 a5-a4
* 22. a6-a7 a4-a5
* 23. a7-a6 a5-a4
* 24. a6-a7 a4-a5
* 25. a7-a6 a5-a4
* 26. a6-a7 a4-a5
* 27. d4-d3 a3-a4
* 28. c4-d4 a4-a3
* 29. d4-c4 a3-a4
* 30. c4-d4 a4-a3
* 31. d4-c4 a3-a4
* 32. c4-d4 a4-a3
* 33. d4-c4
* PositionRepetitionDraw,3,4 a0_mu Draw 0.500000,0.500000
* Comment 0 0
0. 1771417493275
1. 1771417493275
2. 1771417494460
3. 1771417495421
4. 1771417496416
5. 1771417497375
6. 1771417498321
7. 1771417499279
8. 1771417500277
9. 1771417501233
10. 1771417502231
11. 1771417503187
12. 1771417504186
13. 1771417505141
14. 1771417506139
15. 1771417507095
16. 1771417508093
17. 1771417509048
18. 1771417510048
19. 1771417511002
20. 1771417512002
21. 1771417512956
22. 1771417513956
23. 1771417514909
24. 1771417515911
25. 1771417516862
26. 1771417517864
27. 1771417518815
28. 1771417519818
29. 1771417520768
30. 1771417521771
31. 1771417522721
32. 1771417523725
33. 1771417524675
34. 1771417525678
35. 1771417526628
36. 1771417527632
37. 1771417528581
38. 1771417529586
39. 1771417530535
40. 1771417531540
41. 1771417532489
42. 1771417533494
43. 1771417534443
44. 1771417535447
45. 1771417536397
46. 1771417537401
47. 1771417538351
48. 1771417539355
49. 1771417540305
50. 1771417541308
51. 1771417542259
52. 1771417543262
53. 1771417544213
54. 1771417545215
55. 1771417546166
56. 1771417547168
57. 1771417548120
58. 1771417549121
59. 1771417550073
60. 1771417551074
61. 1771417552027
62. 1771417553027
63. 1771417553981
64. 1771417554981
65. 1771417555934

# 10 27 29 63 65 99 101 135 137 171 173 207 209 243 245 279 281 315 317 351 353 387 389 423 425 459 461 495 497 531 533 567 569 603 605 639 641 675 677 711 713 747 749 783 785 819 821 855 857 891 893 927 929 963 965 999 1001 1035 1037 1071 1073 1107 1109 1143 1145 #
LightZero MGTP Interface Ready
=1 LightZero_DarkChess

=2 1.0.0

=7 

=15 

=14 

[debug] move action_id=319, action=((7, 1), (7, 1)), 
[debug] current_player=1 (B), 
[debug] board[(7, 1)]=6, board[(7, 1)]=6, 
[debug] board state:
[[15 15 15 15]
 [15 15 15 15]
 [15 15 15 15]
 [15 15 15 15]
 [15 15 15 15]
 [15 15 15 15]
 [15 15 15 15]
 [15  6 15 15]], 

=11 

=16 

=12 b8 b8

[debug] move action_id=11, action=((0, 1), (0, 1)), 
[debug] current_player=0 (R), 
[debug] board[(0, 1)]=10, board[(0, 1)]=10, 
[debug] board state:
[[15 10 15 15]
 [15 15 15 15]
 [15 15 15 15]
 [15 15 15 15]
 [15 15 15 15]
 [15 15 15 15]
 [15 15 15 15]
 [15  6 15 15]], 

=11 

=16 

[debug] move action_id=66, action=((1, 2), (1, 2)), 
[debug] current_player=1 (B), 
[debug] board[(1, 2)]=9, board[(1, 2)]=9, 
[debug] board state:
[[15 10 15 15]
 [15 15  9 15]
 [15 15 15 15]
 [15 15 15 15]
 [15 15 15 15]
 [15 15 15 15]
 [15 15 15 15]
 [15  6 15 15]], 

=11 

=16 

=12 a4 a4

[debug] move action_id=176, action=((4, 0), (4, 0)), 
[debug] current_player=0 (R), 
[debug] board[(4, 0)]=6, board[(4, 0)]=6, 
[debug] board state:
[[15 10 15 15]
 [15 15  9 15]
 [15 15 15 15]
 [15 15 15 15]
 [ 6 15 15 15]
 [15 15 15 15]
 [15 15 15 15]
 [15  6 15 15]], 

=11 

=16 

[debug] move action_id=88, action=((2, 0), (2, 0)), 
[debug] current_player=1 (B), 
[debug] board[(2, 0)]=4, board[(2, 0)]=4, 
[debug] board state:
[[15 10 15 15]
 [15 15  9 15]
 [ 4 15 15 15]
 [15 15 15 15]
 [ 6 15 15 15]
 [15 15 15 15]
 [15 15 15 15]
 [15  6 15 15]], 

=11 

=16 

=12 d3 d3

[debug] move action_id=253, action=((5, 3), (5, 3)), 
[debug] current_player=0 (R), 
[debug] board[(5, 3)]=0, board[(5, 3)]=0, 
[debug] board state:
[[15 10 15 15]
 [15 15  9 15]
 [ 4 15 15 15]
 [15 15 15 15]
 [ 6 15 15 15]
 [15 15 15  0]
 [15 15 15 15]
 [15  6 15 15]], 

=11 

=16 

[debug] move action_id=33, action=((0, 3), (0, 3)), 
[debug] current_player=1 (B), 
[debug] board[(0, 3)]=5, board[(0, 3)]=5, 
[debug] board state:
[[15 10 15  5]
 [15 15  9 15]
 [ 4 15 15 15]
 [15 15 15 15]
 [ 6 15 15 15]
 [15 15 15  0]
 [15 15 15 15]
 [15  6 15 15]], 

=11 

=16 

=12 a5 a5

[debug] move action_id=132, action=((3, 0), (3, 0)), 
[debug] current_player=0 (R), 
[debug] board[(3, 0)]=10, board[(3, 0)]=10, 
[debug] board state:
[[15 10 15  5]
 [15 15  9 15]
 [ 4 15 15 15]
 [10 15 15 15]
 [ 6 15 15 15]
 [15 15 15  0]
 [15 15 15 15]
 [15  6 15 15]], 

=11 

=16 

[debug] move action_id=22, action=((0, 2), (0, 2)), 
[debug] current_player=1 (B), 
[debug] board[(0, 2)]=6, board[(0, 2)]=6, 
[debug] board state:
[[15 10  6  5]
 [15 15  9 15]
 [ 4 15 15 15]
 [10 15 15 15]
 [ 6 15 15 15]
 [15 15 15  0]
 [15 15 15 15]
 [15  6 15 15]], 

=11 

=16 

=12 b2 b2

[debug] move action_id=275, action=((6, 1), (6, 1)), 
[debug] current_player=0 (R), 
[debug] board[(6, 1)]=1, board[(6, 1)]=1, 
[debug] board state:
[[15 10  6  5]
 [15 15  9 15]
 [ 4 15 15 15]
 [10 15 15 15]
 [ 6 15 15 15]
 [15 15 15  0]
 [15  1 15 15]
 [15  6 15 15]], 

=11 

=16 

[debug] move action_id=121, action=((2, 3), (2, 3)), 
[debug] current_player=1 (B), 
[debug] board[(2, 3)]=12, board[(2, 3)]=12, 
[debug] board state:
[[15 10  6  5]
 [15 15  9 15]
 [ 4 15 15 12]
 [10 15 15 15]
 [ 6 15 15 15]
 [15 15 15  0]
 [15  1 15 15]
 [15  6 15 15]], 

=11 

=16 

=12 c5 c5

[debug] move action_id=154, action=((3, 2), (3, 2)), 
[debug] current_player=0 (R), 
[debug] board[(3, 2)]=8, board[(3, 2)]=8, 
[debug] board state:
[[15 10  6  5]
 [15 15  9 15]
 [ 4 15 15 12]
 [10 15  8 15]
 [ 6 15 15 15]
 [15 15 15  0]
 [15  1 15 15]
 [15  6 15 15]], 

=11 

=16 

[debug] move action_id=77, action=((1, 3), (1, 3)), 
[debug] current_player=1 (B), 
[debug] board[(1, 3)]=13, board[(1, 3)]=13, 
[debug] board state:
[[15 10  6  5]
 [15 15  9 13]
 [ 4 15 15 12]
 [10 15  8 15]
 [ 6 15 15 15]
 [15 15 15  0]
 [15  1 15 15]
 [15  6 15 15]], 

=11 

=16 

=12 b6 b6

[debug] move action_id=99, action=((2, 1), (2, 1)), 
[debug] current_player=0 (R), 
[debug] board[(2, 1)]=7, board[(2, 1)]=7, 
[debug] board state:
[[15 10  6  5]
 [15 15  9 13]
 [ 4  7 15 12]
 [10 15  8 15]
 [ 6 15 15 15]
 [15 15 15  0]
 [15  1 15 15]
 [15  6 15 15]], 

=11 

=16 

[debug] move action_id=220, action=((5, 0), (5, 0)), 
[debug] current_player=1 (B), 
[debug] board[(5, 0)]=11, board[(5, 0)]=11, 
[debug] board state:
[[15 10  6  5]
 [15 15  9 13]
 [ 4  7 15 12]
 [10 15  8 15]
 [ 6 15 15 15]
 [11 15 15  0]
 [15  1 15 15]
 [15  6 15 15]], 

=11 

=16 

=12 d1 d1

[debug] move action_id=341, action=((7, 3), (7, 3)), 
[debug] current_player=0 (R), 
[debug] board[(7, 3)]=13, board[(7, 3)]=13, 
[debug] board state:
[[15 10  6  5]
 [15 15  9 13]
 [ 4  7 15 12]
 [10 15  8 15]
 [ 6 15 15 15]
 [11 15 15  0]
 [15  1 15 15]
 [15  6 15 13]], 

=11 

=16 

[debug] move action_id=286, action=((6, 2), (6, 2)), 
[debug] current_player=1 (B), 
[debug] board[(6, 2)]=3, board[(6, 2)]=3, 
[debug] board state:
[[15 10  6  5]
 [15 15  9 13]
 [ 4  7 15 12]
 [10 15  8 15]
 [ 6 15 15 15]
 [11 15 15  0]
 [15  1  3 15]
 [15  6 15 13]], 

=11 

=16 

=12 a2 a2

[debug] move action_id=264, action=((6, 0), (6, 0)), 
[debug] current_player=0 (R), 
[debug] board[(6, 0)]=5, board[(6, 0)]=5, 
[debug] board state:
[[15 10  6  5]
 [15 15  9 13]
 [ 4  7 15 12]
 [10 15  8 15]
 [ 6 15 15 15]
 [11 15 15  0]
 [ 5  1  3 15]
 [15  6 15 13]], 

=11 

=16 

[debug] move action_id=44, action=((1, 0), (1, 0)), 
[debug] current_player=1 (B), 
[debug] board[(1, 0)]=13, board[(1, 0)]=13, 
[debug] board state:
[[15 10  6  5]
 [13 15  9 13]
 [ 4  7 15 12]
 [10 15  8 15]
 [ 6 15 15 15]
 [11 15 15  0]
 [ 5  1  3 15]
 [15  6 15 13]], 

=11 

=16 

=12 d5 d5

[debug] move action_id=165, action=((3, 3), (3, 3)), 
[debug] current_player=0 (R), 
[debug] board[(3, 3)]=2, board[(3, 3)]=2, 
[debug] board state:
[[15 10  6  5]
 [13 15  9 13]
 [ 4  7 15 12]
 [10 15  8  2]
 [ 6 15 15 15]
 [11 15 15  0]
 [ 5  1  3 15]
 [15  6 15 13]], 

=11 

=16 

[debug] move action_id=242, action=((5, 2), (5, 2)), 
[debug] current_player=1 (B), 
[debug] board[(5, 2)]=11, board[(5, 2)]=11, 
[debug] board state:
[[15 10  6  5]
 [13 15  9 13]
 [ 4  7 15 12]
 [10 15  8  2]
 [ 6 15 15 15]
 [11 15 11  0]
 [ 5  1  3 15]
 [15  6 15 13]], 

=11 

=16 

=12 b7 b7

[debug] move action_id=55, action=((1, 1), (1, 1)), 
[debug] current_player=0 (R), 
[debug] board[(1, 1)]=8, board[(1, 1)]=8, 
[debug] board state:
[[15 10  6  5]
 [13  8  9 13]
 [ 4  7 15 12]
 [10 15  8  2]
 [ 6 15 15 15]
 [11 15 11  0]
 [ 5  1  3 15]
 [15  6 15 13]], 

=11 

=16 

[debug] move action_id=110, action=((2, 2), (2, 2)), 
[debug] current_player=1 (B), 
[debug] board[(2, 2)]=12, board[(2, 2)]=12, 
[debug] board state:
[[15 10  6  5]
 [13  8  9 13]
 [ 4  7 12 12]
 [10 15  8  2]
 [ 6 15 15 15]
 [11 15 11  0]
 [ 5  1  3 15]
 [15  6 15 13]], 

=11 

=16 

=12 d2 d2

[debug] move action_id=297, action=((6, 3), (6, 3)), 
[debug] current_player=0 (R), 
[debug] board[(6, 3)]=3, board[(6, 3)]=3, 
[debug] board state:
[[15 10  6  5]
 [13  8  9 13]
 [ 4  7 12 12]
 [10 15  8  2]
 [ 6 15 15 15]
 [11 15 11  0]
 [ 5  1  3  3]
 [15  6 15 13]], 

=11 

=16 

[debug] move action_id=0, action=((0, 0), (0, 0)), 
[debug] current_player=1 (B), 
[debug] board[(0, 0)]=13, board[(0, 0)]=13, 
[debug] board state:
[[13 10  6  5]
 [13  8  9 13]
 [ 4  7 12 12]
 [10 15  8  2]
 [ 6 15 15 15]
 [11 15 11  0]
 [ 5  1  3  3]
 [15  6 15 13]], 

=11 

=16 

=12 a1 a1

[debug] move action_id=308, action=((7, 0), (7, 0)), 
[debug] current_player=0 (R), 
[debug] board[(7, 0)]=2, board[(7, 0)]=2, 
[debug] board state:
[[13 10  6  5]
 [13  8  9 13]
 [ 4  7 12 12]
 [10 15  8  2]
 [ 6 15 15 15]
 [11 15 11  0]
 [ 5  1  3  3]
 [ 2  6 15 13]], 

=11 

=16 

[debug] move action_id=198, action=((4, 2), (4, 2)), 
[debug] current_player=1 (B), 
[debug] board[(4, 2)]=1, board[(4, 2)]=1, 
[debug] board state:
[[13 10  6  5]
 [13  8  9 13]
 [ 4  7 12 12]
 [10 15  8  2]
 [ 6 15  1 15]
 [11 15 11  0]
 [ 5  1  3  3]
 [ 2  6 15 13]], 

=11 

=16 

=12 d4 d4

[debug] move action_id=209, action=((4, 3), (4, 3)), 
[debug] current_player=0 (R), 
[debug] board[(4, 3)]=4, board[(4, 3)]=4, 
[debug] board state:
[[13 10  6  5]
 [13  8  9 13]
 [ 4  7 12 12]
 [10 15  8  2]
 [ 6 15  1  4]
 [11 15 11  0]
 [ 5  1  3  3]
 [ 2  6 15 13]], 

=11 

=16 

[debug] move action_id=187, action=((4, 1), (4, 1)), 
[debug] current_player=1 (B), 
[debug] board[(4, 1)]=13, board[(4, 1)]=13, 
[debug] board state:
[[13 10  6  5]
 [13  8  9 13]
 [ 4  7 12 12]
 [10 15  8  2]
 [ 6 13  1  4]
 [11 15 11  0]
 [ 5  1  3  3]
 [ 2  6 15 13]], 

=11 

=16 

=12 b3 b3

[debug] move action_id=231, action=((5, 1), (5, 1)), 
[debug] current_player=0 (R), 
[debug] board[(5, 1)]=6, board[(5, 1)]=6, 
[debug] board state:
[[13 10  6  5]
 [13  8  9 13]
 [ 4  7 12 12]
 [10 15  8  2]
 [ 6 13  1  4]
 [11  6 11  0]
 [ 5  1  3  3]
 [ 2  6 15 13]], 

=11 

=16 

[debug] move action_id=330, action=((7, 2), (7, 2)), 
[debug] current_player=1 (B), 
[debug] board[(7, 2)]=6, board[(7, 2)]=6, 
[debug] board state:
[[13 10  6  5]
 [13  8  9 13]
 [ 4  7 12 12]
 [10 15  8  2]
 [ 6 13  1  4]
 [11  6 11  0]
 [ 5  1  3  3]
 [ 2  6  6 13]], 

=11 

=16 

=12 b5 b5

[debug] move action_id=143, action=((3, 1), (3, 1)), 
[debug] current_player=0 (R), 
[debug] board[(3, 1)]=9, board[(3, 1)]=9, 
[debug] board state:
[[13 10  6  5]
 [13  8  9 13]
 [ 4  7 12 12]
 [10  9  8  2]
 [ 6 13  1  4]
 [11  6 11  0]
 [ 5  1  3  3]
 [ 2  6  6 13]], 

=11 

=16 

[debug] move action_id=348, action=((6, 3), (7, 3)), 
[debug] current_player=1 (B), 
[debug] board[(6, 3)]=14, board[(7, 3)]=3, 
[debug] board state:
[[13 10  6  5]
 [13  8  9 13]
 [ 4  7 12 12]
 [10  9  8  2]
 [ 6 13  1  4]
 [11  6 11  0]
 [ 5  1  3 14]
 [ 2  6  6  3]], 

=10 

=16 

=12 c5 d5

[debug] move action_id=164, action=((3, 2), (3, 3)), 
[debug] current_player=0 (R), 
[debug] board[(3, 2)]=14, board[(3, 3)]=8, 
[debug] board state:
[[13 10  6  5]
 [13  8  9 13]
 [ 4  7 12 12]
 [10  9 14  8]
 [ 6 13  1  4]
 [11  6 11  0]
 [ 5  1  3 14]
 [ 2  6  6  3]], 

=10 

=16 

[debug] move action_id=207, action=((4, 2), (4, 1)), 
[debug] current_player=1 (B), 
[debug] board[(4, 2)]=14, board[(4, 1)]=1, 
[debug] board state:
[[13 10  6  5]
 [13  8  9 13]
 [ 4  7 12 12]
 [10  9 14  8]
 [ 6  1 14  4]
 [11  6 11  0]
 [ 5  1  3 14]
 [ 2  6  6  3]], 

=10 

=16 

=12 d5 c5

[debug] move action_id=175, action=((3, 3), (3, 2)), 
[debug] current_player=0 (R), 
[debug] board[(3, 3)]=14, board[(3, 2)]=8, 
[debug] board state:
[[13 10  6  5]
 [13  8  9 13]
 [ 4  7 12 12]
 [10  9  8 14]
 [ 6  1 14  4]
 [11  6 11  0]
 [ 5  1  3 14]
 [ 2  6  6  3]], 

=10 

=16 

[debug] move action_id=196, action=((4, 1), (4, 2)), 
[debug] current_player=1 (B), 
[debug] board[(4, 1)]=14, board[(4, 2)]=1, 
[debug] board state:
[[13 10  6  5]
 [13  8  9 13]
 [ 4  7 12 12]
 [10  9  8 14]
 [ 6 14  1  4]
 [11  6 11  0]
 [ 5  1  3 14]
 [ 2  6  6  3]], 

=10 

=16 

=12 c5 d5

[debug] move action_id=164, action=((3, 2), (3, 3)), 
[debug] current_player=0 (R), 
[debug] board[(3, 2)]=14, board[(3, 3)]=8, 
[debug] board state:
[[13 10  6  5]
 [13  8  9 13]
 [ 4  7 12 12]
 [10  9 14  8]
 [ 6 14  1  4]
 [11  6 11  0]
 [ 5  1  3 14]
 [ 2  6  6  3]], 

=10 

=16 

[debug] move action_id=184, action=((4, 0), (4, 1)), 
[debug] current_player=1 (B), 
[debug] board[(4, 0)]=14, board[(4, 1)]=6, 
[debug] board state:
[[13 10  6  5]
 [13  8  9 13]
 [ 4  7 12 12]
 [10  9 14  8]
 [14  6  1  4]
 [11  6 11  0]
 [ 5  1  3 14]
 [ 2  6  6  3]], 

=10 

=16 

=12 d5 c5

[debug] move action_id=175, action=((3, 3), (3, 2)), 
[debug] current_player=0 (R), 
[debug] board[(3, 3)]=14, board[(3, 2)]=8, 
[debug] board state:
[[13 10  6  5]
 [13  8  9 13]
 [ 4  7 12 12]
 [10  9  8 14]
 [14  6  1  4]
 [11  6 11  0]
 [ 5  1  3 14]
 [ 2  6  6  3]], 

=10 

=16 

[debug] move action_id=303, action=((5, 3), (6, 3)), 
[debug] current_player=1 (B), 
[debug] board[(5, 3)]=14, board[(6, 3)]=0, 
[debug] board state:
[[13 10  6  5]
 [13  8  9 13]
 [ 4  7 12 12]
 [10  9  8 14]
 [14  6  1  4]
 [11  6 11 14]
 [ 5  1  3  0]
 [ 2  6  6  3]], 

=10 

=16 

=12 a5 a4

[debug] move action_id=180, action=((3, 0), (4, 0)), 
[debug] current_player=0 (R), 
[debug] board[(3, 0)]=14, board[(4, 0)]=10, 
[debug] board state:
[[13 10  6  5]
 [13  8  9 13]
 [ 4  7 12 12]
 [14  9  8 14]
 [10  6  1  4]
 [11  6 11 14]
 [ 5  1  3  0]
 [ 2  6  6  3]], 

=10 

=16 

[debug] move action_id=46, action=((2, 0), (1, 0)), 
[debug] current_player=1 (B), 
[debug] board[(2, 0)]=14, board[(1, 0)]=4, 
[debug] board state:
[[13 10  6  5]
 [ 4  8  9 13]
 [14  7 12 12]
 [14  9  8 14]
 [10  6  1  4]
 [11  6 11 14]
 [ 5  1  3  0]
 [ 2  6  6  3]], 

=10 

=16 

=12 a4 a5

[debug] move action_id=136, action=((4, 0), (3, 0)), 
[debug] current_player=0 (R), 
[debug] board[(4, 0)]=14, board[(3, 0)]=10, 
[debug] board state:
[[13 10  6  5]
 [ 4  8  9 13]
 [14  7 12 12]
 [10  9  8 14]
 [14  6  1  4]
 [11  6 11 14]
 [ 5  1  3  0]
 [ 2  6  6  3]], 

=10 

=16 

[debug] move action_id=90, action=((1, 0), (2, 0)), 
[debug] current_player=1 (B), 
[debug] board[(1, 0)]=14, board[(2, 0)]=4, 
[debug] board state:
[[13 10  6  5]
 [14  8  9 13]
 [ 4  7 12 12]
 [10  9  8 14]
 [14  6  1  4]
 [11  6 11 14]
 [ 5  1  3  0]
 [ 2  6  6  3]], 

=10 

=16 

=12 a5 a4

[debug] move action_id=180, action=((3, 0), (4, 0)), 
[debug] current_player=0 (R), 
[debug] board[(3, 0)]=14, board[(4, 0)]=10, 
[debug] board state:
[[13 10  6  5]
 [14  8  9 13]
 [ 4  7 12 12]
 [14  9  8 14]
 [10  6  1  4]
 [11  6 11 14]
 [ 5  1  3  0]
 [ 2  6  6  3]], 

=10 

=16 

[debug] move action_id=46, action=((2, 0), (1, 0)), 
[debug] current_player=1 (B), 
[debug] board[(2, 0)]=14, board[(1, 0)]=4, 
[debug] board state:
[[13 10  6  5]
 [ 4  8  9 13]
 [14  7 12 12]
 [14  9  8 14]
 [10  6  1  4]
 [11  6 11 14]
 [ 5  1  3  0]
 [ 2  6  6  3]], 

=10 

=16 

=12 a4 a5

[debug] move action_id=136, action=((4, 0), (3, 0)), 
[debug] current_player=0 (R), 
[debug] board[(4, 0)]=14, board[(3, 0)]=10, 
[debug] board state:
[[13 10  6  5]
 [ 4  8  9 13]
 [14  7 12 12]
 [10  9  8 14]
 [14  6  1  4]
 [11  6 11 14]
 [ 5  1  3  0]
 [ 2  6  6  3]], 

=10 

=16 

[debug] move action_id=90, action=((1, 0), (2, 0)), 
[debug] current_player=1 (B), 
[debug] board[(1, 0)]=14, board[(2, 0)]=4, 
[debug] board state:
[[13 10  6  5]
 [14  8  9 13]
 [ 4  7 12 12]
 [10  9  8 14]
 [14  6  1  4]
 [11  6 11 14]
 [ 5  1  3  0]
 [ 2  6  6  3]], 

=10 

=16 

=12 a5 a4

[debug] move action_id=180, action=((3, 0), (4, 0)), 
[debug] current_player=0 (R), 
[debug] board[(3, 0)]=14, board[(4, 0)]=10, 
[debug] board state:
[[13 10  6  5]
 [14  8  9 13]
 [ 4  7 12 12]
 [14  9  8 14]
 [10  6  1  4]
 [11  6 11 14]
 [ 5  1  3  0]
 [ 2  6  6  3]], 

=10 

=16 

[debug] move action_id=46, action=((2, 0), (1, 0)), 
[debug] current_player=1 (B), 
[debug] board[(2, 0)]=14, board[(1, 0)]=4, 
[debug] board state:
[[13 10  6  5]
 [ 4  8  9 13]
 [14  7 12 12]
 [14  9  8 14]
 [10  6  1  4]
 [11  6 11 14]
 [ 5  1  3  0]
 [ 2  6  6  3]], 

=10 

=16 

=12 a4 a5

[debug] move action_id=136, action=((4, 0), (3, 0)), 
[debug] current_player=0 (R), 
[debug] board[(4, 0)]=14, board[(3, 0)]=10, 
[debug] board state:
[[13 10  6  5]
 [ 4  8  9 13]
 [14  7 12 12]
 [10  9  8 14]
 [14  6  1  4]
 [11  6 11 14]
 [ 5  1  3  0]
 [ 2  6  6  3]], 

=10 

=16 

[debug] move action_id=258, action=((4, 3), (5, 3)), 
[debug] current_player=1 (B), 
[debug] board[(4, 3)]=14, board[(5, 3)]=4, 
[debug] board state:
[[13 10  6  5]
 [ 4  8  9 13]
 [14  7 12 12]
 [10  9  8 14]
 [14  6  1 14]
 [11  6 11  4]
 [ 5  1  3  0]
 [ 2  6  6  3]], 

=10 

=16 

=12 a3 a4

[debug] move action_id=181, action=((5, 0), (4, 0)), 
[debug] current_player=0 (R), 
[debug] board[(5, 0)]=14, board[(4, 0)]=11, 
[debug] board state:
[[13 10  6  5]
 [ 4  8  9 13]
 [14  7 12 12]
 [10  9  8 14]
 [11  6  1 14]
 [14  6 11  4]
 [ 5  1  3  0]
 [ 2  6  6  3]], 

=10 

=16 

[debug] move action_id=208, action=((4, 2), (4, 3)), 
[debug] current_player=1 (B), 
[debug] board[(4, 2)]=14, board[(4, 3)]=1, 
[debug] board state:
[[13 10  6  5]
 [ 4  8  9 13]
 [14  7 12 12]
 [10  9  8 14]
 [11  6 14  1]
 [14  6 11  4]
 [ 5  1  3  0]
 [ 2  6  6  3]], 

=10 

=16 

=12 a4 a3

[debug] move action_id=225, action=((4, 0), (5, 0)), 
[debug] current_player=0 (R), 
[debug] board[(4, 0)]=14, board[(5, 0)]=11, 
[debug] board state:
[[13 10  6  5]
 [ 4  8  9 13]
 [14  7 12 12]
 [10  9  8 14]
 [14  6 14  1]
 [11  6 11  4]
 [ 5  1  3  0]
 [ 2  6  6  3]], 

=10 

=16 

[debug] move action_id=219, action=((4, 3), (4, 2)), 
[debug] current_player=1 (B), 
[debug] board[(4, 3)]=14, board[(4, 2)]=1, 
[debug] board state:
[[13 10  6  5]
 [ 4  8  9 13]
 [14  7 12 12]
 [10  9  8 14]
 [14  6  1 14]
 [11  6 11  4]
 [ 5  1  3  0]
 [ 2  6  6  3]], 

=10 

=16 

=12 a3 a4

[debug] move action_id=181, action=((5, 0), (4, 0)), 
[debug] current_player=0 (R), 
[debug] board[(5, 0)]=14, board[(4, 0)]=11, 
[debug] board state:
[[13 10  6  5]
 [ 4  8  9 13]
 [14  7 12 12]
 [10  9  8 14]
 [11  6  1 14]
 [14  6 11  4]
 [ 5  1  3  0]
 [ 2  6  6  3]], 

=10 

=16 

[debug] move action_id=208, action=((4, 2), (4, 3)), 
[debug] current_player=1 (B), 
[debug] board[(4, 2)]=14, board[(4, 3)]=1, 
[debug] board state:
[[13 10  6  5]
 [ 4  8  9 13]
 [14  7 12 12]
 [10  9  8 14]
 [11  6 14  1]
 [14  6 11  4]
 [ 5  1  3  0]
 [ 2  6  6  3]], 

=10 

=16 

=12 a4 a3

[debug] move action_id=225, action=((4, 0), (5, 0)), 
[debug] current_player=0 (R), 
[debug] board[(4, 0)]=14, board[(5, 0)]=11, 
[debug] board state:
[[13 10  6  5]
 [ 4  8  9 13]
 [14  7 12 12]
 [10  9  8 14]
 [14  6 14  1]
 [11  6 11  4]
 [ 5  1  3  0]
 [ 2  6  6  3]], 

=10 

=16 

[debug] move action_id=219, action=((4, 3), (4, 2)), 
[debug] current_player=1 (B), 
[debug] board[(4, 3)]=14, board[(4, 2)]=1, 
[debug] board state:
