INITIAL
* 1:6pm Sep 22, 2025
* Random vs Random2
* 1 2 2 2 2 2 5 1 2 2 2 2 2 5
* X X X X
* X X X X
* X X X X
* X X X X
* X X X X
* X X X X
* X X X X
* X X X X
* first 0
* time 900
* 1. a8(P) b4(k)
* 2. c3(r) b3(R)
* 3. a4(c) a5(R)
* 4. c8(m) d7(P)
* 5. a2(r) d1(N)
* 6. b3-c3 a1(p)
* 7. c5(K) c1(P)
* 8. b8(g) c6(G)
* 9. a6(p) d5(c)
* 10. b6(p) b1(p)
* 11. a5-a6 d4(C)
* 12. c3-b3 d5-d7
* 13. d8(P) b1-c1
* 14. d6(C) a4-a5
* 15. d6-d5 a5-a4
* 16. c6-b6 b2(n)
* 17. b6-c6 b5(g)
* 18. b7(N) b5-a5
* 19. b7-b6 c2(m)
* 20. d4-d7 b8-b7
* 21. d7-d6 b7-b6
* 22. c7(G) b4-b3
* 23. a8-b8 b6-c6
* 24. d1-c1 b3-c3
* 25. a7(n) a4-a6
* 26. d2(M) c2-d2
* 27. b8-b7 a1-b1
* 28. c5-b5 d3(P)
* 29. d5-a5 a3(M)
* 30. b7-b6 a6-a3
* 31. b6-a6 d2-d1
* 32. a5-a7 a3-b3
* 33. b5-a5 c6-c7
* 34. a6-b6 b1-a1
* 35. b6-a6 c8-d8
* 36. d6-c6 d8-d7
* 37. a5-a4 a2-a3
* 38. d3-d4 c7-b7
* 39. a6-a5 c4(p)
* 40. d4-c4 d7-d8
* 41. a5-b5 b2-a2
* 42. c6-c7 d1-d2
* 43. c1-d1 b7-c7
* 44. b5-a5 d8-d7
* 45. a7-d7 c3-d3
* 46. a4-a3 c7-b7
* 47. c4-d4 b3-b4
* 48. a3-a2 a1-a2
* 49. d7-d3 b7-c7
* 50. a5-b5 a2-a1
* 51. d1-c1 c7-b7
* 52. b5-b6 d2-d3
* 53. c1-b1 b7-c7
* 54. d4-d5 c7-c6
* 55. d5-d4 c6-c5
* 56. b1-a1 c5-d5
* 57. b6-c6 b4-c4
* 58. c6-b6 d3-d2
* 59. a1-b1 d2-d3
* 60. b6-a6 d3-d4
* 61. b1-a1 d4-d3
* 62. a1-a2 d3-d4
* 63. a2-a1 c4-c3
* 64. a6-a7 d5-d6
* 65. a1-b1 d4-d3
* 66. b1-c1 c3-c4
* 67. c1-c2 d3-d2
* 68. c2-b2 d6-d5
* 69. b2-a2 c4-c3
* 70. a7-a6 d5-c5
* 71. a2-a3 c3-b3
* 72. a6-a7 c5-d5
* 73. a3-a4 b3-c3
* 74. a7-a8 d2-d3
* 75. a8-a7 d5-d6
* 76. a7-a8 d6-d5
* 77. a8-a7 c3-c2
* 78. a4-a3 d3-c3
* 79. a7-a8 d5-c5
* 80. a3-a4 c2-b2
* 81. a4-a3 c3-c2
* 82. a8-b8 c5-d5
* 83. a3-a4 d5-c5
* 84. a4-a3 c5-d5
* 85. a3-a2 c2-c1
* 86. a2-a3 c1-b1
* 87. b8-a8 b2-b3
* 88. a3-b3 d5-d4
* 89. b3-a3 b1-c1
* 90. a8-a7 c1-c2
* 91. a3-a4 d4-d5
* 92. a4-a5 d5-c5
* 93. a5-a4 c5-b5
* 94. a4-a5 b5-a5
* 95. a7-b7 a5-a6
* 96. b7-a7 a6-b6
* 97. a7-b7 b6-c6
* 98. b7-c7 c2-d2
* 99. c7-b7 d2-c2
* 100. b7-b6 c2-c1
* 101. b6-a6 c6-c7
* 102. a6-b6 c1-b1
* 103. b6-c6 c7-b7
* 104. c6-d6 b1-a1
* 105. d6-d5 b7-b6
* 106. d5-c5 b6-b7
* 107. c5-c6 b7-b6
* 108. c6-c5 b6-a6
* 109. c5-c6 a6-a7
* 110. c6-b6 a7-a8
* 111. b6-a6 a1-a2
* 112. a6-a5 a2-b2
* 113. a5-b5 a8-a7
* 114. b5-a5 a7-a6
* 115. a5-b5 b2-b1
* 116. b5-b6 a6-b6
* NoMove Random2 Wins 0.000000,1.000000
* Comment 0 0
0. 1758546385305
1. 1758546385305
2. 1758546385490
3. 1758546385647
4. 1758546385791
5. 1758546385948
6. 1758546386092
7. 1758546386249
8. 1758546386393
9. 1758546386549
10. 1758546386695
11. 1758546386850
12. 1758546386996
13. 1758546387151
14. 1758546387297
15. 1758546387452
16. 1758546387599
17. 1758546387752
18. 1758546387900
19. 1758546388053
20. 1758546388201
21. 1758546388353
22. 1758546388503
23. 1758546388654
24. 1758546388804
25. 1758546388955
26. 1758546389105
27. 1758546389256
28. 1758546389406
29. 1758546389557
30. 1758546389708
31. 1758546389858
32. 1758546390008
33. 1758546390159
34. 1758546390309
35. 1758546390460
36. 1758546390610
37. 1758546390762
38. 1758546390911
39. 1758546391061
40. 1758546391212
41. 1758546391362
42. 1758546391513
43. 1758546391663
44. 1758546391814
45. 1758546391963
46. 1758546392114
47. 1758546392264
48. 1758546392415
49. 1758546392565
50. 1758546392716
51. 1758546392865
52. 1758546393016
53. 1758546393166
54. 1758546393317
55. 1758546393466
56. 1758546393618
57. 1758546393767
58. 1758546393918
59. 1758546394068
60. 1758546394219
61. 1758546394369
62. 1758546394519
63. 1758546394669
64. 1758546394820
65. 1758546394970
66. 1758546395121
67. 1758546395271
68. 1758546395421
69. 1758546395571
70. 1758546395722
71. 1758546395872
72. 1758546396023
73. 1758546396173
74. 1758546396324
75. 1758546396475
76. 1758546396625
77. 1758546396776
78. 1758546396926
79. 1758546397076
80. 1758546397227
81. 1758546397377
82. 1758546397527
83. 1758546397678
84. 1758546397828
85. 1758546397978
86. 1758546398128
87. 1758546398279
88. 1758546398429
89. 1758546398580
90. 1758546398730
91. 1758546398881
92. 1758546399031
93. 1758546399182
94. 1758546399332
95. 1758546399483
96. 1758546399633
97. 1758546399783
98. 1758546399934
99. 1758546400084
100. 1758546400235
101. 1758546400385
102. 1758546400535
103. 1758546400686
104. 1758546400836
105. 1758546400987
106. 1758546401137
107. 1758546401287
108. 1758546401438
109. 1758546401588
110. 1758546401738
111. 1758546401888
112. 1758546402039
113. 1758546402189
114. 1758546402339
115. 1758546402489
116. 1758546402640
117. 1758546402790
118. 1758546402941
119. 1758546403090
120. 1758546403241
121. 1758546403391
122. 1758546403543
123. 1758546403692
124. 1758546403842
125. 1758546403993
126. 1758546404143
127. 1758546404293
128. 1758546404444
129. 1758546404594
130. 1758546404744
131. 1758546404895
132. 1758546405045
133. 1758546405196
134. 1758546405346
135. 1758546405496
136. 1758546405646
137. 1758546405797
138. 1758546405947
139. 1758546406098
140. 1758546406248
141. 1758546406399
142. 1758546406549
143. 1758546406700
144. 1758546406850
145. 1758546407000
146. 1758546407151
147. 1758546407301
148. 1758546407451
149. 1758546407601
150. 1758546407752
151. 1758546407902
152. 1758546408053
153. 1758546408203
154. 1758546408353
155. 1758546408503
156. 1758546408654
157. 1758546408804
158. 1758546408955
159. 1758546409104
160. 1758546409255
161. 1758546409405
162. 1758546409556
163. 1758546409706
164. 1758546409857
165. 1758546410007
166. 1758546410157
167. 1758546410307
168. 1758546410459
169. 1758546410608
170. 1758546410760
171. 1758546410909
172. 1758546411059
173. 1758546411210
174. 1758546411360
175. 1758546411511
176. 1758546411661
177. 1758546411812
178. 1758546411962
179. 1758546412112
180. 1758546412263
181. 1758546412414
182. 1758546412564
183. 1758546412714
184. 1758546412865
185. 1758546413017
186. 1758546413166
187. 1758546413316
188. 1758546413467
189. 1758546413617
190. 1758546413768
191. 1758546413918
192. 1758546414068
193. 1758546414219
194. 1758546414369
195. 1758546414520
196. 1758546414670
197. 1758546414821
198. 1758546414971
199. 1758546415122
200. 1758546415271
201. 1758546415422
202. 1758546415572
203. 1758546415723
204. 1758546415873
205. 1758546416024
206. 1758546416174
207. 1758546416325
208. 1758546416475
209. 1758546416625
210. 1758546416775
211. 1758546416926
212. 1758546417076
213. 1758546417227
214. 1758546417377
215. 1758546417528
216. 1758546417678
217. 1758546417829
218. 1758546417978
219. 1758546418130
220. 1758546418280
221. 1758546418430
222. 1758546418580
223. 1758546418731
224. 1758546418881
225. 1758546419033
226. 1758546419181
227. 1758546419333
228. 1758546419482
229. 1758546419634
230. 1758546419783
231. 1758546419935
232. 1758546420083
