INITIAL
* 2:24pm Aug 15, 2024
* a0 vs a1
* 1 2 2 2 2 2 5 1 2 2 2 2 2 5
* X X X X
* X X X X
* X X X X
* X X X X
* X X X X
* X X X X
* X X X X
* X X X X
* first 1
* time 900
* 1. a8(p) d6(G)
* 2. c2(c) a1(G)
* 3. b4(m) d7(P)
* 4. c6(P) b8(g)
* 5. c8(M) a4(R)
* 6. b3(m) b6(P)
* 7. a2(g) c4(r)
* 8. b7(n) c7(P)
* 9. d1(M) a1-a2
* 10. a5(N) b2(C)
* 11. a6(P) a2-a1
* 12. d4(K) c3(p)
* 13. b5(N) b1(C)
* 14. d3(p) a7(R)
* 15. d8(n) d5(c)
* 16. a3(k) c5(p)
* 17. a3-a4 a1-a2
* 18. b3-a3 d4-c4
* 19. c5-c6 b5-c5
* 20. d5-a5 c4-d4
* 21. c2-a2 c5-b5
* 22. c6-c5 d6-c6
* 23. d2(r) d4-d5
* 24. d2-c2 d1-d2
* 25. c5-c4 c6-c5
* 26. b4-b3 c5-c6
* 27. d3-d4 d7-d6
* 28. b3-b4 c8-d8
* 29. a5-d5 a7-b7
* 30. c3-d3 a6-a7
* 31. c2-b2 b5-c5
* 32. b8-c8 d2-d3
* 33. c1(p) b1-a1
* 34. c4-c3 a1-a3
* 35. c8-b8 c5-d5
* 36. b2-c2 d3-c3
* 37. a2-a1 b6-b5
* 38. b8-c8 d5-d4
* 39. a4-a3 d8-d7
* 40. c8-b8 d4-c4
* 41. a3-a4 c3-b3
* 42. c2-b2 b3-a3
* 43. a4-a5 b5-c5
* 44. a1-b1 c5-b5
* 45. c1-d1 a3-b3
* 46. b4-b5 b3-b4
* 47. d1-c1 d7-d8
* 48. c1-d1 c4-c3
* 49. b5-b4 c6-c5
* 50. b4-a4 c3-b3
* 51. b2-a2 b3-b4
* 52. a5-b5 b7-b6
* 53. a2-b2 c5-d5
* 54. b2-b3 c7-d7
* 55. b8-c8 b6-c6
* 56. c8-b8 d8-c8
* 57. a4-a3 a7-b7
* 58. b8-c8 b7-b6
* 59. a8-a7 b4-c4
* 60. c8-c7 c4-d4
* 61. b1-a1 c6-c5
* 62. b3-b2 b6-a6
* 63. a1-b1 a6-a5
* 64. b1-c1 d4-d3
* 65. c7-c8 a5-a4
* 66. a7-a6 d3-d2
* 67. a6-a5 c5-c4
* 68. b2-a2 c4-d4
* 69. a3-b3 a4-b4
* 70. a2-b2 b4-c4
* 71. c1-c2 d6-c6
* 72. c8-d8 d2-d1
* 73. d8-c8 c6-c7
* 74. c2-c1 c4-b4
* 75. c8-c7 b4-a4
* 76. c7-c8 a4-b4
* IllegalAction,c1-d1 a1 Wins 0.000000,1.000000
* Comment 0 0
0. 1723703081504
1. 1723703081504
2. 1723703081689
3. 1723703081849
4. 1723703082041
5. 1723703082197
6. 1723703082341
7. 1723703082497
8. 1723703082641
9. 1723703082797
10. 1723703082941
11. 1723703083105
12. 1723703083293
13. 1723703083453
14. 1723703083645
15. 1723703083805
16. 1723703083997
17. 1723703084157
18. 1723703084345
19. 1723703084501
20. 1723703084645
21. 1723703084805
22. 1723703084997
23. 1723703085153
24. 1723703085297
25. 1723703085453
26. 1723703085597
27. 1723703085757
28. 1723703085949
29. 1723703086105
30. 1723703086249
31. 1723703086409
32. 1723703086601
33. 1723703086757
34. 1723703086901
35. 1723703087057
36. 1723703087201
37. 1723703087365
38. 1723703087557
39. 1723703087713
40. 1723703087901
41. 1723703088061
42. 1723703088253
43. 1723703088413
44. 1723703088609
45. 1723703088761
46. 1723703088953
47. 1723703089113
48. 1723703089305
49. 1723703089465
50. 1723703089657
51. 1723703089813
52. 1723703090009
53. 1723703090169
54. 1723703090357
55. 1723703090517
56. 1723703090709
57. 1723703090869
58. 1723703091057
59. 1723703091217
60. 1723703091409
61. 1723703091569
62. 1723703091761
63. 1723703091921
64. 1723703092113
65. 1723703092269
66. 1723703092465
67. 1723703092621
68. 1723703092809
69. 1723703092973
70. 1723703093161
71. 1723703093325
72. 1723703093513
73. 1723703093673
74. 1723703093861
75. 1723703094029
76. 1723703094213
77. 1723703094377
78. 1723703094569
79. 1723703094729
80. 1723703094913
81. 1723703095077
82. 1723703095265
83. 1723703095429
84. 1723703095617
85. 1723703095781
86. 1723703095965
87. 1723703096129
88. 1723703096317
89. 1723703096481
90. 1723703096669
91. 1723703096833
92. 1723703097017
93. 1723703097185
94. 1723703097369
95. 1723703097533
96. 1723703097725
97. 1723703097885
98. 1723703098069
99. 1723703098237
100. 1723703098421
101. 1723703098589
102. 1723703098773
103. 1723703098937
104. 1723703099125
105. 1723703099289
106. 1723703099473
107. 1723703099641
108. 1723703099825
109. 1723703099989
110. 1723703100177
111. 1723703100341
112. 1723703100529
113. 1723703100693
114. 1723703100877
115. 1723703101041
116. 1723703101229
117. 1723703101393
118. 1723703101581
119. 1723703101745
120. 1723703101929
121. 1723703102097
122. 1723703102281
123. 1723703102449
124. 1723703102633
125. 1723703102797
126. 1723703102985
127. 1723703103153
128. 1723703103337
129. 1723703103501
130. 1723703103685
131. 1723703103853
132. 1723703104037
133. 1723703104201
134. 1723703104385
135. 1723703104553
136. 1723703104737
137. 1723703104905
138. 1723703105089
139. 1723703105253
140. 1723703105441
141. 1723703105605
142. 1723703105789
143. 1723703105953
144. 1723703106141
145. 1723703106305
146. 1723703106493
147. 1723703106657
148. 1723703106845
149. 1723703107009
150. 1723703107193
151. 1723703107357
152. 1723703107545
