INITIAL
* 0:57pm Aug 16, 2024
* a0 vs a1
* 1 2 2 2 2 2 5 1 2 2 2 2 2 5
* X X X X
* X X X X
* X X X X
* X X X X
* X X X X
* X X X X
* X X X X
* X X X X
* first 1
* time 900
* 1. a8(g) b6(N)
* 2. c3(R) b4(K)
* 3. b3(k) a7(N)
* 4. d5(C) c7(m)
* 5. c1(p) d4(n)
* 6. a2(c) a3(P)
* 7. b7(n) d6(P)
* 8. b8(p) d7(M)
* 9. b7-b6 c5(P)
* 10. a4(p) b1(P)
* 11. a4-a3 b2(G)
* 12. c7-d7 d3(G)
* 13. d1(r) a7-b7
* 14. d8(P) b7-b6
* 15. a6(R) d3-d4
* 16. b3-b4 c4(r)
* 17. b5(g) c8(c)
* 18. c8-c5 c3-c4
* 19. d7-d8 c6(C)
* 20. b5-b6 a5(M)
* 21. c5-b5 a5-b5
* 22. b4-b3 d5-c5
* 23. d2(m) a6-a7
* 24. d2-d3 a7-b7
* 25. b6-c6 c2(p)
* 26. c6-d6 b5-b4
* 27. c2-c3 b7-c7
* 28. b3-b2 b4-a4
* 29. b2-c2 a1(p)
* 30. a2-a4 b1-a1
* 31. c1-b1 c5-c6
* 32. d3-d2 c4-c3
* 33. a4-a5 c3-c4
* 34. d8-d7 c4-c5
* 35. a8-a7 c5-c4
* 36. c2-c3 c6-b6
* 37. b1-a1 c4-c5
* 38. a5-b5 c5-c4
* 39. b8-a8 c7-c8
* 40. b5-b4 b6-a6
* 41. a3-a2 a6-a5
* 42. d6-d5 a5-a4
* 43. d2-d3 a4-a5
* 44. a2-a3 a5-a6
* 45. b4-d4 c8-c7
* 46. a3-a4 c4-b4
* 47. c3-c2 b4-b5
* 48. d7-d8 b5-b6
* 49. a4-a5 a6-a8
* 50. d3-d2 a8-b8
* 51. d5-d6 c7-b7
* 52. d8-c8 b8-a8
* 53. c8-c7 a8-b8
* 54. a7-b7 b6-c6
* 55. d4-d3 c6-c5
* 56. c7-c6 b8-c8
* 57. a5-a6 c5-c4
* 58. c2-c3 c4-b4
* 59. d2-c2 b4-c4
* 60. a6-b6 c4-b4
* 61. b7-b8 b4-b5
* 62. b8-c8 b5-b6
* 63. c2-b2 b6-b5
* 64. c8-b8 b5-b6
* 65. d3-d4 b6-b7
* 66. c6-b6 b7-a7
* 67. d4-d3 a7-a8
* 68. b8-a8
* NoMove a0 Wins 1.000000,0.000000
* Comment 0 0
0. 1723784247615
1. 1723784247615
2. 1723784247801
3. 1723784247957
4. 1723784248101
5. 1723784248257
6. 1723784248401
7. 1723784248561
8. 1723784248753
9. 1723784248909
10. 1723784249053
11. 1723784249213
12. 1723784249405
13. 1723784249561
14. 1723784249705
15. 1723784249861
16. 1723784250005
17. 1723784250165
18. 1723784250357
19. 1723784250513
20. 1723784250657
21. 1723784250817
22. 1723784251009
23. 1723784251169
24. 1723784251361
25. 1723784251517
26. 1723784251661
27. 1723784251817
28. 1723784251961
29. 1723784252121
30. 1723784252313
31. 1723784252469
32. 1723784252613
33. 1723784252769
34. 1723784252913
35. 1723784253077
36. 1723784253265
37. 1723784253421
38. 1723784253565
39. 1723784253729
40. 1723784253917
41. 1723784254073
42. 1723784254217
43. 1723784254377
44. 1723784254569
45. 1723784254725
46. 1723784254869
47. 1723784255033
48. 1723784255221
49. 1723784255377
50. 1723784255569
51. 1723784255729
52. 1723784255925
53. 1723784256081
54. 1723784256273
55. 1723784256429
56. 1723784256573
57. 1723784256733
58. 1723784256929
59. 1723784257081
60. 1723784257225
61. 1723784257385
62. 1723784257577
63. 1723784257733
64. 1723784257877
65. 1723784258037
66. 1723784258229
67. 1723784258385
68. 1723784258577
69. 1723784258737
70. 1723784258929
71. 1723784259089
72. 1723784259281
73. 1723784259441
74. 1723784259629
75. 1723784259793
76. 1723784259981
77. 1723784260141
78. 1723784260333
79. 1723784260493
80. 1723784260685
81. 1723784260841
82. 1723784260985
83. 1723784261149
84. 1723784261337
85. 1723784261493
86. 1723784261685
87. 1723784261849
88. 1723784262037
89. 1723784262197
90. 1723784262393
91. 1723784262549
92. 1723784262737
93. 1723784262901
94. 1723784263089
95. 1723784263249
96. 1723784263441
97. 1723784263605
98. 1723784263797
99. 1723784263949
100. 1723784264097
101. 1723784264257
102. 1723784264445
103. 1723784264601
104. 1723784264793
105. 1723784264957
106. 1723784265149
107. 1723784265305
108. 1723784265497
109. 1723784265661
110. 1723784265845
111. 1723784266005
112. 1723784266197
113. 1723784266357
114. 1723784266549
115. 1723784266709
116. 1723784266901
117. 1723784267057
118. 1723784267201
119. 1723784267361
120. 1723784267553
121. 1723784267709
122. 1723784267853
123. 1723784268009
124. 1723784268153
125. 1723784268313
126. 1723784268505
127. 1723784268661
128. 1723784268805
129. 1723784268961
130. 1723784269105
131. 1723784269265
132. 1723784269457
133. 1723784269613
134. 1723784269757
135. 1723784269917
