INITIAL
* 0:48pm Aug 16, 2024
* a0 vs a1
* 1 2 2 2 2 2 5 1 2 2 2 2 2 5
* X X X X
* X X X X
* X X X X
* X X X X
* X X X X
* X X X X
* X X X X
* X X X X
* first 1
* time 900
* 1. a8(n) d4(P)
* 2. c2(p) b3(G)
* 3. b4(M) b5(p)
* 4. c7(r) d7(g)
* 5. c8(P) d6(p)
* 6. a1(R) a4(n)
* 7. c1(C) b6(C)
* 8. c5(c) d2(P)
* 9. d3(G) c4(r)
* 10. a5(g) d5(p)
* 11. c4-d4 d1(k)
* 12. c6(p) b4-c4
* 13. b1(R) c4-b4
* 14. d1-c1 c3(m)
* 15. c1-d1 b4-b5
* 16. a7(P) d8(K)
* 17. c5-c4 d8-d7
* 18. a2(N) d2-d1
* 19. a8-a7 a3(P)
* 20. c2-d2 b3-c3
* 21. c7-c8 d7-d8
* 22. c4-b4 b2(m)
* 23. b2-b3 b8(N)
* 24. c8-b8 d1-d2
* 25. d4-c4 b7(M)
* 26. b3-b2 b7-b8
* 27. b2-b3 d2-c2
* 28. a7-a8 c2-c1
* 29. b4-b1 c1-c2
* 30. a4-a3 a6(c)
* 31. b1-b5 d3-d4
* 32. c4-b4 d4-d3
* 33. d5-c5 b8-b7
* 34. a6-a7 a2-b2
* 35. d6-d5 c3-c4
* 36. b5-b7 c4-c3
* 37. c5-c4 a1-a2
* 38. c6-c5 d3-d4
* 39. b7-b8 a2-a1
* 40. b3-b2 c2-c1
* 41. b2-b3 d8-d7
* 42. a5-b5 a1-b1
* 43. b8-b7 b1-b2
* 44. a3-a2 b2-b1
* 45. d5-d6 c1-d1
* 46. c5-c6 d4-d5
* 47. b5-a5 b1-c1
* 48. a5-b5 d1-d2
* 49. c6-c7 c3-b3
* 50. c7-c8 d5-c5
* 51. c4-c3 b6-c6
* 52. b4-a4 b3-c3
* 53. a7-a6 c1-d1
* 54. c8-d8 d2-c2
* 55. a2-a1 c6-b6
* 56. b5-a5 d1-c1
* 57. d8-c8 c3-c4
* 58. d6-d5 b6-b5
* 59. a5-b5 c5-b5
* 60. a1-b1 c2-c3
* 61. a6-a5 c3-b3
* 62. b7-b8 c4-c5
* 63. c8-c7 b3-b2
* 64. b8-b2 c1-d1
* 65. a5-c5 d1-c1
* 66. a4-b4 b5-a5
* 67. b2-c2 a5-a4
* 68. c2-d2 d7-d8
* 69. c7-c6 a4-a3
* 70. d5-d4 a3-b3
* 71. b4-a4 b3-a3
* 72. d2-c2 a3-a2
* 73. a4-a3 c1-d1
* 74. b1-b2 d8-d7
* 75. c6-c7 a2-b2
* 76. c7-c8 b2-a2
* 77. a8-b8 d1-d2
* 78. c8-c7 d2-d1
* 79. b8-c8 d7-d8
* 80. c2-d2 d8-d7
* 81. d4-d5 a2-a3
* 82. d2-d3 d7-d8
* 83. d5-d4 a3-b3
* 84. c5-d5 b3-b4
* 85. d3-d2 b4-c4
* 86. c8-b8 d1-d2
* 87. b8-b7 d2-d1
* 88. b7-b8 d1-d2
* 89. c7-b7 c4-c5
* 90. b7-c7 c5-c6
* 91. d4-c4 c6-d6
* 92. c4-c5 d6-d7
* 93. c7-c6 d2-d3
* 94. d5-d8 d3-c3
* 95. d8-c8 c3-d3
* 96. c5-b5 d7-d8
* 97. b8-b7 d8-d7
* 98. b7-c7 d3-c3
* 99. c6-b6 c3-c4
* 100. c8-b8 c4-b4
* 101. c7-b7 d7-d6
* 102. b6-a6 b4-b3
* 103. a6-a5 d6-d7
* 104. b8-a8 b3-b2
* 105. b5-c5 b2-b3
* 106. c5-b5 d7-d6
* 107. b5-b6 b3-b2
* 108. b6-b5 b2-b3
* 109. b7-a7 b3-b2
* 110. a8-b8 b2-b1
* 111. a7-a6 d6-d5
* 112. b8-b1 d5-c5
* 113. b1-c1 c5-d5
* 114. a6-b6 d5-d6
* 115. b6-c6 d6-d7
* 116. a5-a4 d7-c7
* 117. c1-c7
* NoMove a0 Wins 1.000000,0.000000
* Comment 0 0
0. 1723783728666
1. 1723783728666
2. 1723783728853
3. 1723783729009
4. 1723783729153
5. 1723783729309
6. 1723783729457
7. 1723783729609
8. 1723783729753
9. 1723783729909
10. 1723783730061
11. 1723783730213
12. 1723783730357
13. 1723783730513
14. 1723783730657
15. 1723783730813
16. 1723783730957
17. 1723783731113
18. 1723783731257
19. 1723783731417
20. 1723783731609
21. 1723783731765
22. 1723783731909
23. 1723783732065
24. 1723783732213
25. 1723783732365
26. 1723783732513
27. 1723783732665
28. 1723783732813
29. 1723783732973
30. 1723783733165
31. 1723783733317
32. 1723783733465
33. 1723783733621
34. 1723783733765
35. 1723783733921
36. 1723783734065
37. 1723783734221
38. 1723783734365
39. 1723783734525
40. 1723783734717
41. 1723783734873
42. 1723783735017
43. 1723783735173
44. 1723783735317
45. 1723783735473
46. 1723783735617
47. 1723783735777
48. 1723783735969
49. 1723783736129
50. 1723783736321
51. 1723783736477
52. 1723783736625
53. 1723783736777
54. 1723783736921
55. 1723783737077
56. 1723783737221
57. 1723783737377
58. 1723783737521
59. 1723783737677
60. 1723783737825
61. 1723783737977
62. 1723783738125
63. 1723783738281
64. 1723783738425
65. 1723783738581
66. 1723783738725
67. 1723783738885
68. 1723783739081
69. 1723783739233
70. 1723783739377
71. 1723783739533
72. 1723783739677
73. 1723783739837
74. 1723783740029
75. 1723783740185
76. 1723783740333
77. 1723783740489
78. 1723783740681
79. 1723783740833
80. 1723783740981
81. 1723783741137
82. 1723783741285
83. 1723783741441
84. 1723783741633
85. 1723783741789
86. 1723783741937
87. 1723783742089
88. 1723783742233
89. 1723783742393
90. 1723783742585
91. 1723783742741
92. 1723783742885
93. 1723783743045
94. 1723783743237
95. 1723783743393
96. 1723783743537
97. 1723783743693
98. 1723783743837
99. 1723783743993
100. 1723783744137
101. 1723783744297
102. 1723783744489
103. 1723783744649
104. 1723783744841
105. 1723783744997
106. 1723783745141
107. 1723783745297
108. 1723783745441
109. 1723783745597
110. 1723783745741
111. 1723783745897
112. 1723783746045
113. 1723783746197
114. 1723783746345
115. 1723783746501
116. 1723783746645
117. 1723783746801
118. 1723783746945
119. 1723783747101
120. 1723783747245
121. 1723783747401
122. 1723783747545
123. 1723783747701
124. 1723783747845
125. 1723783748001
126. 1723783748149
127. 1723783748301
128. 1723783748449
129. 1723783748605
130. 1723783748749
131. 1723783748905
132. 1723783749049
133. 1723783749205
134. 1723783749349
135. 1723783749509
136. 1723783749701
137. 1723783749857
138. 1723783750005
139. 1723783750157
140. 1723783750301
141. 1723783750457
142. 1723783750605
143. 1723783750757
144. 1723783750905
145. 1723783751061
146. 1723783751205
147. 1723783751361
148. 1723783751505
149. 1723783751661
150. 1723783751805
151. 1723783751961
152. 1723783752109
153. 1723783752261
154. 1723783752409
155. 1723783752561
156. 1723783752709
157. 1723783752865
158. 1723783753009
159. 1723783753165
160. 1723783753309
161. 1723783753465
162. 1723783753609
163. 1723783753765
164. 1723783753913
165. 1723783754065
166. 1723783754213
167. 1723783754373
168. 1723783754561
169. 1723783754721
170. 1723783754913
171. 1723783755069
172. 1723783755213
173. 1723783755373
174. 1723783755565
175. 1723783755721
176. 1723783755869
177. 1723783756021
178. 1723783756165
179. 1723783756325
180. 1723783756517
181. 1723783756673
182. 1723783756817
183. 1723783756973
184. 1723783757121
185. 1723783757273
186. 1723783757421
187. 1723783757573
188. 1723783757721
189. 1723783757877
190. 1723783758021
191. 1723783758177
192. 1723783758325
193. 1723783758481
194. 1723783758673
195. 1723783758829
196. 1723783758973
197. 1723783759129
198. 1723783759273
199. 1723783759429
200. 1723783759577
201. 1723783759733
202. 1723783759925
203. 1723783760085
204. 1723783760277
205. 1723783760433
206. 1723783760577
207. 1723783760733
208. 1723783760877
209. 1723783761037
210. 1723783761233
211. 1723783761385
212. 1723783761529
213. 1723783761685
214. 1723783761833
215. 1723783761985
216. 1723783762129
217. 1723783762289
218. 1723783762481
219. 1723783762641
220. 1723783762833
221. 1723783762993
222. 1723783763185
223. 1723783763341
224. 1723783763533
225. 1723783763693
226. 1723783763885
227. 1723783764041
228. 1723783764185
229. 1723783764345
230. 1723783764537
231. 1723783764693
232. 1723783764837
233. 1723783765001
