INITIAL
* 1:16pm Aug 16, 2024
* a0 vs a1
* 1 2 2 2 2 2 5 1 2 2 2 2 2 5
* X X X X
* X X X X
* X X X X
* X X X X
* X X X X
* X X X X
* X X X X
* X X X X
* first 1
* time 900
* 1. a8(p) d6(r)
* 2. c2(k) a1(P)
* 3. b4(K) a5(g)
* 4. c7(g) c5(P)
* 5. d1(C) b6(P)
* 6. c8(P) d7(p)
* 7. b8(R) d5(R)
* 8. c4(p) b2(p)
* 9. c1(m) a3(r)
* 10. b7(m) a4(c)
* 11. a6(p) d8(G)
* 12. c7-c8 c6(G)
* 13. d7-c7 a7(c)
* 14. c4-c5 a2(P)
* 15. b1(n) c6-c7
* 16. d2(M) d4(n)
* 17. c8-b8 b5(C)
* 18. b2-a2 c3(M)
* 19. d3(N) d5-d4
* 20. c5-d5 d8-d7
* 21. a2-a1 c7-c8
* 22. b7-c7 b3(N)
* 23. b1-b2 b6-b7
* 24. b2-b1 b7-b6
* 25. a7-b7 b3-b2
* 26. b7-b5 c3-b3
* 27. b1-b2 b3-c3
* 28. d6-c6 d4-c4
* 29. c2-d2 c4-c5
* 30. b2-b1 c5-c4
* 31. d5-d4 c8-b8
* 32. a1-a2 b8-a8
* 33. a3-b3 c4-d4
* 34. c6-b6 a8-a7
* 35. b5-c5 c3-c2
* 36. c5-c6 b4-b5
* 37. a2-b2 b5-c5
* 38. c7-c8 d7-c7
* 39. c6-d6 c7-c6
* 40. d2-d3 c6-b6
* 41. a4-b4 c2-b2
* 42. c8-c7 c5-d5
* 43. c7-c8 a7-a8
* 44. c8-c7 a8-b8
* 45. b3-c3 b6-b5
* 46. a5-a4 b8-b7
* 47. a6-a5 d4-c4
* 48. d3-d4 d1-d2
* 49. d4-d3 d5-c5
* 50. d3-d2 b2-b1
* 51. c7-c6 b7-b6
* 52. c3-c2 c4-c3
* 53. a5-a6 b5-a5
* 54. b4-c4 b6-a6
* 55. c1-d1 c5-d5
* 56. a4-b4 d5-d4
* 57. b4-b3 d4-d3
* 58. d2-d3 a5-a4
* 59. d3-c3 a6-a5
* 60. c2-c1 a5-a6
* 61. b3-b4 b1-c1
* 62. c4-d4 c1-c2
* 63. c3-b3 c2-b2
* 64. d6-a6 b2-b1
* 65. d1-c1 b1-c1
* 66. a6-b6 c1-c2
* 67. d4-d5 c2-b2
* 68. c6-c7 b2-b1
* 69. b3-b2 b1-a1
* 70. d5-d4 a1-b1
* 71. b4-a4 b1-a1
* 72. b6-c6 a1-a2
* 73. d4-d5 a2-a1
* 74. a4-b4 a1-a2
* 75. b2-b1 a2-a1
* 76. c6-b6 a1-a2
* 77. b1-c1 a2-a3
* 78. c7-c6 a3-a2
* 79. c6-d6 a2-a1
* 80. b6-b7 a1-b1
* 81. d6-d7 b1-b2
* 82. b7-b8 b2-a2
* 83. d5-d4 a2-b2
* 84. b8-b7 b2-c2
* 85. b4-b5 c2-b2
* 86. d4-c4 b2-b1
* 87. c4-d4 b1-b2
* 88. c1-d1 b2-b1
* 89. b7-a7 b1-b2
* 90. b5-b6 b2-b3
* 91. d7-c7 b3-c3
* 92. b6-b7 c3-d3
* 93. d4-c4 d3-c3
* 94. a7-a8 c3-c2
* 95. c4-d4 c2-b2
* 96. c7-c8 b2-c2
* 97. b7-c7 c2-c3
* 98. c8-d8 c3-c2
* 99. d1-c1 c2-c3
* 100. c7-d7 c3-b3
* 101. d7-c7 b3-b4
* 102. a8-b8 b4-b5
* 103. d8-d7 b5-b6
* 104. b8-a8 b6-c6
* 105. d7-d8 c6-d6
* 106. c7-b7 d6-d7
* 107. c1-c2 d7-d6
* 108. b7-a7 d6-c6
* 109. d4-d3 c6-c5
* 110. a7-b7 c5-c6
* 111. c2-c3 c6-c7
* 112. d8-d7 c7-c8
* 113. d7-c7 c8-b8
* 114. c7-d7 b8-c8
* 115. c3-b3 c8-c7
* 116. a8-a7
* NoEatFlipDraw a0 Draw 0.500000,0.500000
* Comment 0 0
0. 1723785396526
1. 1723785396526
2. 1723785396713
3. 1723785396869
4. 1723785397013
5. 1723785397173
6. 1723785397365
7. 1723785397521
8. 1723785397665
9. 1723785397825
10. 1723785398017
11. 1723785398173
12. 1723785398317
13. 1723785398473
14. 1723785398617
15. 1723785398773
16. 1723785398921
17. 1723785399073
18. 1723785399221
19. 1723785399377
20. 1723785399521
21. 1723785399677
22. 1723785399821
23. 1723785399981
24. 1723785400173
25. 1723785400329
26. 1723785400473
27. 1723785400629
28. 1723785400777
29. 1723785400929
30. 1723785401077
31. 1723785401229
32. 1723785401377
33. 1723785401529
34. 1723785401677
35. 1723785401833
36. 1723785401977
37. 1723785402133
38. 1723785402281
39. 1723785402433
40. 1723785402581
41. 1723785402733
42. 1723785402885
43. 1723785403033
44. 1723785403181
45. 1723785403337
46. 1723785403489
47. 1723785403641
48. 1723785403833
49. 1723785403989
50. 1723785404137
51. 1723785404289
52. 1723785404437
53. 1723785404589
54. 1723785404737
55. 1723785404889
56. 1723785405041
57. 1723785405193
58. 1723785405341
59. 1723785405493
60. 1723785405637
61. 1723785405793
62. 1723785405941
63. 1723785406097
64. 1723785406241
65. 1723785406397
66. 1723785406541
67. 1723785406693
68. 1723785406841
69. 1723785406993
70. 1723785407145
71. 1723785407293
72. 1723785407441
73. 1723785407597
74. 1723785407745
75. 1723785407897
76. 1723785408045
77. 1723785408197
78. 1723785408345
79. 1723785408501
80. 1723785408645
81. 1723785408797
82. 1723785408945
83. 1723785409097
84. 1723785409249
85. 1723785409397
86. 1723785409549
87. 1723785409705
88. 1723785409849
89. 1723785410001
90. 1723785410153
91. 1723785410301
92. 1723785410449
93. 1723785410605
94. 1723785410749
95. 1723785410901
96. 1723785411053
97. 1723785411205
98. 1723785411357
99. 1723785411505
100. 1723785411653
101. 1723785411805
102. 1723785411953
103. 1723785412105
104. 1723785412253
105. 1723785412405
106. 1723785412553
107. 1723785412705
108. 1723785412857
109. 1723785413009
110. 1723785413157
111. 1723785413309
112. 1723785413457
113. 1723785413613
114. 1723785413757
115. 1723785413909
116. 1723785414057
117. 1723785414209
118. 1723785414365
119. 1723785414513
120. 1723785414665
121. 1723785414813
122. 1723785414961
123. 1723785415113
124. 1723785415261
125. 1723785415417
126. 1723785415561
127. 1723785415713
128. 1723785415865
129. 1723785416013
130. 1723785416169
131. 1723785416321
132. 1723785416469
133. 1723785416621
134. 1723785416769
135. 1723785416921
136. 1723785417065
137. 1723785417217
138. 1723785417369
139. 1723785417517
140. 1723785417669
141. 1723785417817
142. 1723785417969
143. 1723785418117
144. 1723785418269
145. 1723785418421
146. 1723785418569
147. 1723785418721
148. 1723785418873
149. 1723785419021
150. 1723785419173
151. 1723785419321
152. 1723785419473
153. 1723785419621
154. 1723785419777
155. 1723785419925
156. 1723785420073
157. 1723785420225
158. 1723785420373
159. 1723785420525
160. 1723785420681
161. 1723785420825
162. 1723785420977
163. 1723785421129
164. 1723785421277
165. 1723785421425
166. 1723785421581
167. 1723785421729
168. 1723785421881
169. 1723785422033
170. 1723785422181
171. 1723785422329
172. 1723785422481
173. 1723785422629
174. 1723785422781
175. 1723785422929
176. 1723785423081
177. 1723785423229
178. 1723785423381
179. 1723785423537
180. 1723785423681
181. 1723785423833
182. 1723785423981
183. 1723785424133
184. 1723785424285
185. 1723785424433
186. 1723785424589
187. 1723785424737
188. 1723785424889
189. 1723785425033
190. 1723785425185
191. 1723785425337
192. 1723785425485
193. 1723785425637
194. 1723785425785
195. 1723785425937
196. 1723785426089
197. 1723785426237
198. 1723785426389
199. 1723785426537
200. 1723785426689
201. 1723785426837
202. 1723785426989
203. 1723785427141
204. 1723785427289
205. 1723785427441
206. 1723785427589
207. 1723785427741
208. 1723785427897
209. 1723785428041
210. 1723785428193
211. 1723785428341
212. 1723785428493
213. 1723785428641
214. 1723785428793
215. 1723785428945
216. 1723785429093
217. 1723785429245
218. 1723785429397
219. 1723785429549
220. 1723785429697
221. 1723785429845
222. 1723785429997
223. 1723785430145
224. 1723785430297
225. 1723785430445
226. 1723785430597
227. 1723785430749
228. 1723785430901
229. 1723785431049
230. 1723785431201
231. 1723785431353
