INITIAL
* 1:5pm Aug 16, 2024
* a1 vs a0
* 1 2 2 2 2 2 5 1 2 2 2 2 2 5
* X X X X
* X X X X
* X X X X
* X X X X
* X X X X
* X X X X
* X X X X
* X X X X
* first 1
* time 900
* 1. a4(p) b4(g)
* 2. c4(k) b3(P)
* 3. a3(G) b5(K)
* 4. b2(p) c8(g)
* 5. a2(M) c2(C)
* 6. a1(p) d7(r)
* 7. a8(P) b8(m)
* 8. d3(M) a2-a1
* 9. d4(n) c1(P)
* 10. a6(c) c2-c4
* 11. d8(P) a3-a2
* 12. c3(R) d5(R)
* 13. d2(c) d6(n)
* 14. a7(p) b1(C)
* 15. d2-c2 a8-a7
* 16. a5(G) b5-b4
* 17. d7-d8 d5-d6
* 18. c2-d2 b7(p)
* 19. b6(N) a5-a4
* 20. c7(r) d1(P)
* 21. d2-c2 d3-d4
* 22. a6-a2 b4-b5
* 23. c5(m) c4-c2
* 24. b8-a8 a4-a3
* 25. c5-d5 a7-a6
* 26. b2-b3 b1-b2
* 27. c6(N) c2-d2
* 28. b7-b8 d6-d7
* 29. a8-a7 b2-b1
* 30. b8-a8 d2-d5
* 31. b3-b2 a6-a5
* 32. a7-a6 d5-d8
* 33. b2-c2 b1-b2
* 34. c7-d7 b5-c5
* 35. c8-d8 a5-b5
* 36. a8-a7 c3-c2
* 37. d7-c7 c5-d5
* 38. c7-b7 b5-a5
* 39. b7-c7 d1-d2
* 40. c7-b7 b6-b5
* 41. a6-b6 d4-d3
* 42. a2-a5 d5-c5
* 43. a5-a6 c1-d1
* 44. a6-a5 d3-d4
* 45. d8-c8 a1-a2
* 46. a5-a4 a3-b3
* 47. a4-a3 c2-c1
* 48. c8-c7 c1-b1
* 49. c7-c8 d2-c2
* 50. c8-d8 c6-d6
* 51. d8-c8 b3-a3
* 52. c8-b8 d6-d7
* 53. b8-a8 c5-d5
* 54. a8-b8 a3-b3
* 55. b8-c8 d5-d6
* 56. b6-b5 d4-c4
* 57. b5-c5 c4-b4
* 58. c5-b5 d6-c6
* 59. b7-c7 d1-c1
* 60. b5-b4 a2-a1
* 61. a7-a6 a1-a2
* 62. a6-a5 c6-c5
* 63. c8-d8 d7-d6
* 64. c7-d7 c1-d1
* 65. d7-d6 b1-a1
* 66. d6-d5 c2-c1
* 67. a5-b5 c5-c4
* 68. b5-a5 c1-c2
* 69. a5-b5 a2-a3
* 70. b5-b6 c2-c1
* 71. b6-c6 c1-c2
* 72. c6-d6 c2-c3
* 73. d8-c8 d1-c1
* 74. b4-b5 c3-c2
* 75. b5-b6 a3-a2
* 76. d5-d4 c4-c5
* 77. c8-d8 c5-c4
* 78. d4-d3 c4-c3
* 79. b6-b7 c1-b1
* 80. b7-b6 c2-d2
* 81. d6-d5 c3-d3
* 82. d8-d7 b1-c1
* 83. d7-c7 b3-b4
* 84. c7-b7 b4-b5
* 85. d5-d4 c1-d1
* 86. b7-a7 b2-b3
* 87. a7-b7 b3-b6
* 88. b7-c7 d3-c3
* 89. d4-c4 d2-d3
* 90. c7-c8 b5-c5
* 91. c8-c7 c3-b3
* 92. c7-c6 d3-d2
* 93. c4-c3 c5-c4
* 94. c6-b6 c4-c3
* 95. b6-a6 c3-d3
* 96. a6-a5 b3-b4
* 97. a5-a6 b4-c4
* 98. a6-a5 d3-c3
* 99. a5-b5 c4-b4
* 100. b5-b6 c3-b3
* 101. b6-b7 b3-a3
* 102. b7-a7 a3-b3
* 103. a7-a6 a2-b2
* 104. a6-b6 b2-a2
* 105. b6-a6 d2-d3
* 106. a6-a7 b3-b2
* 107. a7-b7 b4-c4
* 108. b7-c7 c4-c5
* 109. c7-c6 b2-c2
* 110. c6-b6 d1-d2
* 111. b6-b5 c5-c4
* 112. b5-c5 d3-d4
* 113. c5-d5 a2-a3
* 114. d5-c5 c2-b2
* 115. c5-c6 d4-d5
* 116. c6-d6 a1-b1
* 117. d6-c6 d5-c5
* 118. c6-c5 d2-d1
* 119. c5-d5 b2-b3
* 120. d5-d4 a3-a2
* 121. d4-d3 b3-c3
* 122. d3-d4 b1-a1
* 123. d4-d3 c3-d3
* NoMove a0 Wins 0.000000,1.000000
* Comment 0 0
0. 1723784752162
1. 1723784752162
2. 1723784752353
3. 1723784752505
4. 1723784752653
5. 1723784752805
6. 1723784752949
7. 1723784753105
8. 1723784753249
9. 1723784753409
10. 1723784753605
11. 1723784753757
12. 1723784753901
13. 1723784754057
14. 1723784754201
15. 1723784754361
16. 1723784754553
17. 1723784754709
18. 1723784754853
19. 1723784755017
20. 1723784755205
21. 1723784755361
22. 1723784755505
23. 1723784755665
24. 1723784755857
25. 1723784756013
26. 1723784756157
27. 1723784756313
28. 1723784756457
29. 1723784756617
30. 1723784756813
31. 1723784756965
32. 1723784757109
33. 1723784757265
34. 1723784757409
35. 1723784757569
36. 1723784757761
37. 1723784757917
38. 1723784758061
39. 1723784758217
40. 1723784758361
41. 1723784758525
42. 1723784758713
43. 1723784758869
44. 1723784759013
45. 1723784759173
46. 1723784759365
47. 1723784759521
48. 1723784759713
49. 1723784759877
50. 1723784760065
51. 1723784760225
52. 1723784760417
53. 1723784760573
54. 1723784760765
55. 1723784760925
56. 1723784761117
57. 1723784761277
58. 1723784761465
59. 1723784761629
60. 1723784761817
61. 1723784761977
62. 1723784762169
63. 1723784762329
64. 1723784762517
65. 1723784762681
66. 1723784762869
67. 1723784763029
68. 1723784763221
69. 1723784763381
70. 1723784763569
71. 1723784763733
72. 1723784763921
73. 1723784764081
74. 1723784764273
75. 1723784764433
76. 1723784764621
77. 1723784764785
78. 1723784764973
79. 1723784765137
80. 1723784765325
81. 1723784765485
82. 1723784765677
83. 1723784765837
84. 1723784766029
85. 1723784766193
86. 1723784766377
87. 1723784766537
88. 1723784766733
89. 1723784766889
90. 1723784767077
91. 1723784767241
92. 1723784767433
93. 1723784767589
94. 1723784767781
95. 1723784767945
96. 1723784768129
97. 1723784768293
98. 1723784768481
99. 1723784768645
100. 1723784768833
101. 1723784768993
102. 1723784769185
103. 1723784769345
104. 1723784769533
105. 1723784769697
106. 1723784769885
107. 1723784770045
108. 1723784770237
109. 1723784770397
110. 1723784770585
111. 1723784770749
112. 1723784770941
113. 1723784771097
114. 1723784771289
115. 1723784771449
116. 1723784771641
117. 1723784771801
118. 1723784771989
119. 1723784772153
120. 1723784772341
121. 1723784772505
122. 1723784772693
123. 1723784772853
124. 1723784773041
125. 1723784773205
126. 1723784773393
127. 1723784773553
128. 1723784773745
129. 1723784773905
130. 1723784774093
131. 1723784774257
132. 1723784774445
133. 1723784774609
134. 1723784774801
135. 1723784774957
136. 1723784775149
137. 1723784775309
138. 1723784775497
139. 1723784775661
140. 1723784775849
141. 1723784776009
142. 1723784776197
143. 1723784776361
144. 1723784776549
145. 1723784776713
146. 1723784776901
147. 1723784777069
148. 1723784777249
149. 1723784777417
150. 1723784777601
151. 1723784777765
152. 1723784777953
153. 1723784778117
154. 1723784778305
155. 1723784778469
156. 1723784778653
157. 1723784778817
158. 1723784779005
159. 1723784779169
160. 1723784779357
161. 1723784779517
162. 1723784779705
163. 1723784779869
164. 1723784780057
165. 1723784780221
166. 1723784780409
167. 1723784780569
168. 1723784780757
169. 1723784780921
170. 1723784781109
171. 1723784781273
172. 1723784781461
173. 1723784781625
174. 1723784781813
175. 1723784781973
176. 1723784782161
177. 1723784782325
178. 1723784782513
179. 1723784782673
180. 1723784782865
181. 1723784783029
182. 1723784783213
183. 1723784783377
184. 1723784783565
185. 1723784783729
186. 1723784783917
187. 1723784784077
188. 1723784784265
189. 1723784784429
190. 1723784784617
191. 1723784784781
192. 1723784784969
193. 1723784785129
194. 1723784785321
195. 1723784785481
196. 1723784785673
197. 1723784785833
198. 1723784786021
199. 1723784786181
200. 1723784786373
201. 1723784786533
202. 1723784786721
203. 1723784786885
204. 1723784787073
205. 1723784787237
206. 1723784787425
207. 1723784787585
208. 1723784787773
209. 1723784787937
210. 1723784788129
211. 1723784788289
212. 1723784788477
213. 1723784788637
214. 1723784788829
215. 1723784788989
216. 1723784789177
217. 1723784789345
218. 1723784789525
219. 1723784789689
220. 1723784789881
221. 1723784790045
222. 1723784790229
223. 1723784790397
224. 1723784790581
225. 1723784790745
226. 1723784790929
227. 1723784791093
228. 1723784791281
229. 1723784791445
230. 1723784791633
231. 1723784791801
232. 1723784791981
233. 1723784792145
234. 1723784792337
235. 1723784792497
236. 1723784792685
237. 1723784792849
238. 1723784793033
239. 1723784793201
240. 1723784793385
241. 1723784793553
242. 1723784793737
243. 1723784793901
244. 1723784794085
245. 1723784794253
246. 1723784794437
