INITIAL
* 1:9pm Aug 16, 2024
* a1 vs a0
* 1 2 2 2 2 2 5 1 2 2 2 2 2 5
* X X X X
* X X X X
* X X X X
* X X X X
* X X X X
* X X X X
* X X X X
* X X X X
* first 0
* time 900
* 1. c7(P) b3(G)
* 2. b4(g) c2(m)
* 3. a3(P) b4-b3
* 4. d7(p) d5(k)
* 5. d4(p) b8(p)
* 6. b7(C) b3-b4
* 7. c4(R) b4-b3
* 8. c8(c) a2(G)
* 9. b6(P) d1(c)
* 10. b5(m) b5-b6
* 11. d3(P) b3-a3
* 12. c3(M) a8(n)
* 13. c3-b3 d8(r)
* 14. a6(R) d7-c7
* 15. c6(r) a4(M)
* 16. b3-c3 b1(N)
* 17. b2(K) b6-b7
* 18. d6(P) a1(N)
* 19. b2-c2 a7(n)
* 20. c4-d4 a3-b3
* 21. d2(g) d1-b1
* 22. c3-c4 c5(p)
* 23. c4-c5 c1(p)
* 24. a4-a3 b3-b2
* 25. a6-a7 b2-b3
* 26. a3-a4 c1-c2
* 27. c5-c4 b3-c3
* 28. a5(C) d2-d3
* 29. a2-b2 c2-d2
* 30. c4-b4 d2-c2
* 31. a5-a6 b1-b4
* 32. a6-a5 b4-b5
* 33. a5-a6 d5-d4
* 34. a6-a8 c2-d2
* 35. b2-b3 b7-a7
* 36. a8-c8 b5-c5
* 37. b3-b2 a7-b7
* 38. a4-a5 d8-c8
* 39. b2-b3 c3-c4
* 40. a5-a6 c6-b6
* 41. a6-b6 c7-c6
* 42. b3-a3 d2-d1
* 43. a3-a4 b7-b6
* 44. a4-b4 c8-d8
* 45. b4-c4 d4-c4
* 46. a1-a2 d3-d2
* 47. a2-a3 d2-c2
* 48. a3-a2 b6-b5
* 49. a2-b2 b5-b4
* 50. b2-b3 c6-c7
* 51. b3-c3 b8-b7
* 52. c3-b3 c2-b2
* 53. b3-a3 c5-c6
* 54. a3-b3 b7-b8
* 55. b3-c3 b2-c2
* 56. c3-d3 c7-d7
* 57. d3-d4 c4-d4
* 58. d6-d7 d1-d2
* 59. d7-d6 d4-d5
* 60. d6-d7 c6-b6
* 61. d7-c7 b8-c8
* 62. c7-c6 c2-c1
* 63. c6-d6 b4-c4
* 64. d6-d7 c4-b4
* 65. d7-c7 d5-c5
* 66. c7-b7 b6-c6
* 67. b7-c7 d2-d1
* 68. c7-b7 b4-b5
* 69. b7-b6 d1-d2
* 70. b6-b7 d2-d3
* 71. b7-b6 d3-c3
* 72. b6-b7 c3-c2
* 73. b7-b6 c8-b8
* 74. b6-b7 c2-c3
* 75. b7-b6 c5-c4
* 76. b6-b7 d8-d7
* 77. b7-b8 c6-c7
* 78. b8-c8 c7-c6
* 79. c8-c7 b5-a5
* 80. c7-b7 c1-b1
* 81. b7-b6 c3-d3
* 82. b6-b5 c4-d4
* 83. b5-c5 d4-d5
* 84. c5-b5 a5-a4
* 85. b5-a5 d7-d6
* 86. a5-a6 d3-c3
* 87. a6-a5 c6-c7
* 88. a5-a6 c7-c8
* 89. a6-a5 b1-c1
* 90. a5-b5 d5-d4
* 91. b5-b6 c8-d8
* 92. b6-b5 c3-b3
* 93. b5-b4 c1-c2
* 94. b4-c4 a4-a5
* 95. c4-b4 d8-d7
* 96. b4-c4 a5-a6
* 97. c4-b4 d7-c7
* 98. b4-b5 b3-b2
* 99. b5-b4 b2-b3
* 100. b4-a4 c7-c6
* 101. a4-b4 a6-b6
* 102. b4-c4 d6-d5
* 103. c4-b4 b3-c3
* 104. b4-b3 c6-d6
* 105. b3-b4 b6-c6
* 106. b4-c4 d4-d3
* 107. c4-c3 c6-c7
* 108. c3-c4 c2-d2
* 109. c4-c5 d5-d4
* 110. c5-c4 c7-b7
* 111. c4-c3 d2-d1
* 112. c3-c2 d6-d5
* 113. c2-d2 b7-b8
* 114. d2-c2 b8-a8
* 115. c2-c3 d5-c5
* 116. c3-d3 a8-b8
* 117. d3-d2 d4-c4
* 118. d2-c2 c4-c3
* 119. c2-d2 c5-c6
* 120. d2-d3 c6-c5
* 121. d3-d2 d1-d2
* NoMove a0 Wins 0.000000,1.000000
* Comment 0 0
0. 1723784984739
1. 1723784984739
2. 1723784984925
3. 1723784985085
4. 1723784985277
5. 1723784985433
6. 1723784985581
7. 1723784985733
8. 1723784985881
9. 1723784986033
10. 1723784986181
11. 1723784986333
12. 1723784986481
13. 1723784986637
14. 1723784986829
15. 1723784986985
16. 1723784987129
17. 1723784987285
18. 1723784987429
19. 1723784987589
20. 1723784987781
21. 1723784987937
22. 1723784988081
23. 1723784988237
24. 1723784988385
25. 1723784988541
26. 1723784988733
27. 1723784988889
28. 1723784989033
29. 1723784989189
30. 1723784989341
31. 1723784989493
32. 1723784989641
33. 1723784989793
34. 1723784989937
35. 1723784990093
36. 1723784990237
37. 1723784990393
38. 1723784990537
39. 1723784990693
40. 1723784990841
41. 1723784990993
42. 1723784991141
43. 1723784991297
44. 1723784991441
45. 1723784991601
46. 1723784991793
47. 1723784991949
48. 1723784992097
49. 1723784992249
50. 1723784992397
51. 1723784992553
52. 1723784992745
53. 1723784992901
54. 1723784993045
55. 1723784993201
56. 1723784993345
57. 1723784993501
58. 1723784993649
59. 1723784993801
60. 1723784993949
61. 1723784994101
62. 1723784994249
63. 1723784994405
64. 1723784994549
65. 1723784994705
66. 1723784994849
67. 1723784995005
68. 1723784995153
69. 1723784995305
70. 1723784995453
71. 1723784995609
72. 1723784995757
73. 1723784995905
74. 1723784996057
75. 1723784996209
76. 1723784996353
77. 1723784996509
78. 1723784996653
79. 1723784996809
80. 1723784996957
81. 1723784997109
82. 1723784997257
83. 1723784997413
84. 1723784997557
85. 1723784997713
86. 1723784997857
87. 1723784998013
88. 1723784998161
89. 1723784998313
90. 1723784998465
91. 1723784998613
92. 1723784998761
93. 1723784998917
94. 1723784999061
95. 1723784999221
96. 1723784999413
97. 1723784999565
98. 1723784999717
99. 1723784999869
100. 1723785000061
101. 1723785000217
102. 1723785000361
103. 1723785000517
104. 1723785000669
105. 1723785000821
106. 1723785001017
107. 1723785001169
108. 1723785001317
109. 1723785001477
110. 1723785001665
111. 1723785001821
112. 1723785001969
113. 1723785002125
114. 1723785002269
115. 1723785002425
116. 1723785002569
117. 1723785002725
118. 1723785002869
119. 1723785003025
120. 1723785003173
121. 1723785003325
122. 1723785003473
123. 1723785003625
124. 1723785003773
125. 1723785003929
126. 1723785004073
127. 1723785004229
128. 1723785004373
129. 1723785004529
130. 1723785004673
131. 1723785004829
132. 1723785004973
133. 1723785005129
134. 1723785005277
135. 1723785005429
136. 1723785005577
137. 1723785005733
138. 1723785005877
139. 1723785006033
140. 1723785006177
141. 1723785006337
142. 1723785006529
143. 1723785006685
144. 1723785006833
145. 1723785006985
146. 1723785007133
147. 1723785007285
148. 1723785007429
149. 1723785007585
150. 1723785007729
151. 1723785007885
152. 1723785008033
153. 1723785008189
154. 1723785008337
155. 1723785008489
156. 1723785008633
157. 1723785008789
158. 1723785008937
159. 1723785009089
160. 1723785009237
161. 1723785009389
162. 1723785009541
163. 1723785009689
164. 1723785009841
165. 1723785009997
166. 1723785010189
167. 1723785010341
168. 1723785010489
169. 1723785010649
170. 1723785010841
171. 1723785010993
172. 1723785011145
173. 1723785011297
174. 1723785011445
175. 1723785011597
176. 1723785011741
177. 1723785011901
178. 1723785012093
179. 1723785012253
180. 1723785012441
181. 1723785012601
182. 1723785012793
183. 1723785012949
184. 1723785013093
185. 1723785013249
186. 1723785013397
187. 1723785013549
188. 1723785013697
189. 1723785013857
190. 1723785014045
191. 1723785014201
192. 1723785014349
193. 1723785014501
194. 1723785014649
195. 1723785014805
196. 1723785014953
197. 1723785015109
198. 1723785015301
199. 1723785015457
200. 1723785015601
201. 1723785015757
202. 1723785015901
203. 1723785016057
204. 1723785016201
205. 1723785016361
206. 1723785016553
207. 1723785016709
208. 1723785016853
209. 1723785017009
210. 1723785017153
211. 1723785017313
212. 1723785017505
213. 1723785017665
214. 1723785017861
215. 1723785018017
216. 1723785018209
217. 1723785018361
218. 1723785018509
219. 1723785018661
220. 1723785018809
221. 1723785018969
222. 1723785019157
223. 1723785019317
224. 1723785019509
225. 1723785019665
226. 1723785019813
227. 1723785019965
228. 1723785020109
229. 1723785020265
230. 1723785020409
231. 1723785020569
232. 1723785020761
233. 1723785020917
234. 1723785021065
235. 1723785021225
236. 1723785021413
237. 1723785021569
238. 1723785021761
239. 1723785021921
240. 1723785022117
241. 1723785022273
242. 1723785022461
