INITIAL
* 1:22pm Aug 16, 2024
* a0 vs a1
* 1 2 2 2 2 2 5 1 2 2 2 2 2 5
* X X X X
* X X X X
* X X X X
* X X X X
* X X X X
* X X X X
* X X X X
* X X X X
* first 1
* time 900
* 1. a8(p) a4(P)
* 2. c3(r) b4(p)
* 3. a5(P) c5(p)
* 4. d7(G) c8(p)
* 5. d1(k) c4(c)
* 6. b3(p) d5(N)
* 7. a1(n) b8(r)
* 8. c4-a4 a3(R)
* 9. c1(g) a2(m)
* 10. b6(P) b5(C)
* 11. b4-c4 d2(C)
* 12. d4(M) a3-a4
* 13. a7(R) b2(P)
* 14. c7(N) d3(P)
* 15. c2(G) b2-b3
* 16. a2-b2 b3-b4
* 17. c6(n) b1(M)
* 18. b2-a2 a6(m)
* 19. a6-a5 b4-c4
* 20. d1-d2 c4-b4
* 21. c3-c4 b1-b2
* 22. c1-c2 d6(K)
* 23. c2-b2 d4-c4
* 24. c6-b6 c7-c8
* 25. d2-c2 d8(g)
* 26. b6-c6 c4-c3
* 27. b8-c8 d3-d2
* 28. a5-a4 d2-d1
* 29. a2-a3 b7(c)
* 30. a4-a5 d1-d2
* 31. c2-c1 c3-b3
* 32. b2-b1 d5-d4
* 33. b7-b8 d4-d3
* 34. c5-d5 b5-c5
* 35. a5-a6 d3-c3
* 36. a6-b6 c3-c2
* 37. a3-a4 b3-c3
* 38. d5-d4 c5-c4
* 39. c6-c5 c3-d3
* 40. a4-b4 d6-c6
* 41. c8-c7 c4-c3
* 42. d8-d7 c3-b3
* 43. c5-c4 c2-b2
* 44. b1-b2 c6-d6
* 45. b6-a6 a7-a8
* 46. b8-b3 a8-b8
* 47. d7-d8 b8-b7
* 48. d8-d7 b7-b8
* 49. b2-a2 b8-c8
* 50. c4-c3 c8-d8
* 51. a6-b6 d6-d7
* 52. d4-c4 d7-c7
* 53. a2-a3 c7-d7
* 54. b6-a6 d8-c8
* 55. a1-a2 c8-d8
* 56. a2-a1 d8-c8
* 57. a1-a2 d2-c2
* 58. a6-a5 c2-b2
* 59. a2-a1 b2-c2
* 60. a1-b1 c2-d2
* 61. a3-a2 d2-d1
* 62. b3-b2 c8-c7
* 63. c3-b3 c7-b7
* 64. c4-c5 b7-b8
* 65. a5-a6 b8-a8
* 66. a2-a1 d3-d4
* 67. c5-d5 d4-c4
* 68. b4-b5 c4-c5
* 69. a6-a7 d7-c7
* 70. a7-a8 c7-d7
* 71. b5-b6 d7-c7
* 72. a1-a2 c7-b7
* 73. c1-c2 b7-b6
* 74. a2-a3 b6-a6
* 75. c2-d2 c5-c6
* 76. d5-c5 c6-b6
* 77. b3-c3 b6-b5
* 78. a3-b3 b5-a5
* 79. b2-a2 a5-b5
* 80. a8-b8 b5-a5
* 81. b3-a3 a5-b5
* 82. b8-a8 a6-a7
* 83. b1-a1 a7-a6
* 84. c3-c2 a6-a7
* 85. a2-a7 b5-b6
* 86. a1-a2 b6-b5
* 87. c2-b2 b5-b6
* 88. c5-d5 b6-b7
* 89. d2-d3 d1-c1
* 90. a3-a4 c1-b1
* 91. d3-d2 b7-b6
* 92. d5-d4 b1-a1
* 93. d4-d5 b6-b5
* 94. a4-a5 b5-c5
* 95. d2-c2 c5-b5
* 96. c2-c1 b5-b4
* 97. c1-c2 b4-b3
* 98. a7-a6 b3-c3
* 99. d5-d6 c3-b3
* 100. d6-d5 b3-a3
* 101. c2-d2 a3-b3
* 102. d2-c2 b3-c3
* 103. c2-c3 a1-b1
* 104. b2-b1
* NoMove a0 Wins 1.000000,0.000000
* Comment 0 0
0. 1723785737653
1. 1723785737653
2. 1723785737841
3. 1723785737997
4. 1723785738141
5. 1723785738297
6. 1723785738441
7. 1723785738597
8. 1723785738741
9. 1723785738897
10. 1723785739041
11. 1723785739197
12. 1723785739345
13. 1723785739497
14. 1723785739645
15. 1723785739801
16. 1723785739945
17. 1723785740105
18. 1723785740297
19. 1723785740449
20. 1723785740601
21. 1723785740753
22. 1723785740901
23. 1723785741057
24. 1723785741245
25. 1723785741401
26. 1723785741549
27. 1723785741701
28. 1723785741849
29. 1723785742005
30. 1723785742149
31. 1723785742305
32. 1723785742449
33. 1723785742605
34. 1723785742749
35. 1723785742905
36. 1723785743049
37. 1723785743205
38. 1723785743349
39. 1723785743505
40. 1723785743649
41. 1723785743809
42. 1723785744001
43. 1723785744157
44. 1723785744301
45. 1723785744461
46. 1723785744653
47. 1723785744809
48. 1723785744953
49. 1723785745109
50. 1723785745253
51. 1723785745413
52. 1723785745605
53. 1723785745761
54. 1723785745905
55. 1723785746061
56. 1723785746205
57. 1723785746365
58. 1723785746557
59. 1723785746713
60. 1723785746861
61. 1723785747013
62. 1723785747161
63. 1723785747313
64. 1723785747461
65. 1723785747613
66. 1723785747757
67. 1723785747917
68. 1723785748109
69. 1723785748265
70. 1723785748409
71. 1723785748565
72. 1723785748709
73. 1723785748869
74. 1723785749061
75. 1723785749217
76. 1723785749361
77. 1723785749521
78. 1723785749713
79. 1723785749869
80. 1723785750013
81. 1723785750169
82. 1723785750317
83. 1723785750469
84. 1723785750613
85. 1723785750773
86. 1723785750969
87. 1723785751121
88. 1723785751269
89. 1723785751421
90. 1723785751565
91. 1723785751721
92. 1723785751865
93. 1723785752025
94. 1723785752221
95. 1723785752373
96. 1723785752517
97. 1723785752673
98. 1723785752821
99. 1723785752981
100. 1723785753169
101. 1723785753325
102. 1723785753469
103. 1723785753625
104. 1723785753773
105. 1723785753929
106. 1723785754121
107. 1723785754277
108. 1723785754421
109. 1723785754577
110. 1723785754725
111. 1723785754881
112. 1723785755073
113. 1723785755229
114. 1723785755373
115. 1723785755529
116. 1723785755673
117. 1723785755833
118. 1723785756025
119. 1723785756181
120. 1723785756325
121. 1723785756485
122. 1723785756677
123. 1723785756833
124. 1723785756977
125. 1723785757133
126. 1723785757277
127. 1723785757437
128. 1723785757629
129. 1723785757785
130. 1723785757933
131. 1723785758085
132. 1723785758229
133. 1723785758389
134. 1723785758581
135. 1723785758737
136. 1723785758881
137. 1723785759037
138. 1723785759181
139. 1723785759341
140. 1723785759533
141. 1723785759689
142. 1723785759833
143. 1723785759989
144. 1723785760137
145. 1723785760293
146. 1723785760485
147. 1723785760645
148. 1723785760837
149. 1723785760993
150. 1723785761137
151. 1723785761297
152. 1723785761489
153. 1723785761649
154. 1723785761837
155. 1723785761993
156. 1723785762141
157. 1723785762297
158. 1723785762493
159. 1723785762645
160. 1723785762789
161. 1723785762949
162. 1723785763145
163. 1723785763297
164. 1723785763441
165. 1723785763597
166. 1723785763741
167. 1723785763901
168. 1723785764097
169. 1723785764249
170. 1723785764393
171. 1723785764549
172. 1723785764697
173. 1723785764853
174. 1723785765045
175. 1723785765205
176. 1723785765397
177. 1723785765553
178. 1723785765697
179. 1723785765853
180. 1723785765997
181. 1723785766153
182. 1723785766301
183. 1723785766457
184. 1723785766649
185. 1723785766805
186. 1723785766949
187. 1723785767105
188. 1723785767253
189. 1723785767413
190. 1723785767601
191. 1723785767757
192. 1723785767901
193. 1723785768057
194. 1723785768209
195. 1723785768365
196. 1723785768553
197. 1723785768709
198. 1723785768861
199. 1723785769009
200. 1723785769157
201. 1723785769317
202. 1723785769505
203. 1723785769661
204. 1723785769805
205. 1723785769965
206. 1723785770157
207. 1723785770313
