INITIAL
* 1:11am Aug 22, 2024
* a0 vs a1
* 1 2 2 2 2 2 5 1 2 2 2 2 2 5
* X X X X
* X X X X
* X X X X
* X X X X
* X X X X
* X X X X
* X X X X
* X X X X
* first 0
* time 900
* 1. a8(R) a4(P)
* 2. c3(N) d4(G)
* 3. b4(P) a1(m)
* 4. c7(K) b8(p)
* 5. d1(p) b3(M)
* 6. a2(m) d5(n)
* 7. a3(P) c2(p)
* 8. c1(g) a7(P)
* 9. a8-b8 a5(k)
* 10. a6(r) b5(P)
* 11. a7-a8 b6(n)
* 12. d6(C) d7(N)
* 13. b1(c) c5(M)
* 14. b7(C) c4(p)
* 15. b7-a7 c8(r)
* 16. b8-b7 a6-a7
* 17. a4-a5 d3(p)
* 18. c3-c4 d8(c)
* 19. c6(g) d2(G)
* 20. a3-a4 b1-b3
* 21. c7-c6 b3-a3
* 22. d2-d1 c2-d2
* 23. b7-b6 b2(R)
* 24. d6-d8 c8-d8
* 25. c4-c3 a2-b2
* 26. b6-b7 c1-b1
* 27. c3-c2 a1-a2
* 28. d4-c4 a2-a1
* 29. a8-b8 a7-b7
* 30. b4-b3 b7-c7
* 31. d7-d6 a3-a2
* 32. c6-b6 b1-c1
* 33. d6-c6 b2-b1
* 34. d1-d2 c7-c6
* 35. c4-d4 d5-d6
* 36. c2-c3 d8-c8
* 37. a4-a3 d6-d5
* 38. b8-a8 c8-c7
* 39. a3-a4 c7-c8
* 40. b6-b7 c1-d1
* 41. a4-a3 c8-d8
* 42. d4-d5 d1-d2
* 43. a5-a6 c6-c7
* 44. a6-a7 b1-b2
* 45. a8-b8 c7-c8
* 46. b5-b4 b2-b1
* 47. c5-c6 a2-b2
* 48. b4-a4 d3-d4
* 49. d5-c5 b2-c2
* 50. c5-d5 c2-c6
* 51. d5-c5 d2-d3
* 52. b3-b2 a1-a2
* 53. b8-a8 c6-b6
* 54. a8-b8 d3-d2
* 55. b7-b6 d2-d3
* 56. b6-b7 d4-d5
* 57. a3-b3 d3-d2
* 58. c5-b5 d5-d4
* 59. a7-a6 a2-b2
* 60. c3-c4 b2-b3
* 61. c4-c5 d2-c2
* 62. c5-c6 b3-a3
* 63. a6-a5 d4-d5
* 64. c6-d6 a3-a4
* 65. b7-b6 c8-b8
* 66. d6-d5 d8-d7
* 67. d5-d6 a4-a3
* 68. b5-b4 a3-b3
* 69. d6-c6 b8-a8
* 70. a5-a6 d7-d6
* 71. b4-c4 d6-d5
* 72. c6-c5 b1-b2
* 73. b6-b7 b3-b4
* 74. c4-c3 a8-b8
* 75. c3-c2 d5-d4
* 76. c5-c6 b2-b1
* 77. c6-c5 b4-a4
* 78. c5-c4 a4-a5
* 79. c2-c3 a5-b5
* 80. a6-a5 b8-a8
* 81. c3-d3 b1-a1
* 82. a5-a6 a1-a2
* 83. d3-d2 a2-b2
* 84. a6-a5 b2-c2
* 85. c4-c3 d4-c4
* 86. d2-d3 c4-c5
* 87. b7-b8 c2-c3
* 88. b8-c8 a8-a7
* 89. c8-b8 c5-c6
* 90. d3-d2 b5-b6
* 91. d2-c2 c3-d3
* 92. a5-a6 a7-b7
* 93. c2-c1 d3-c3
* 94. a6-a7 c6-c7
* 95. b8-c8 c3-d3
* 96. c1-d1 b6-b5
* 97. c8-c7 d3-d4
* 98. c7-b7 b5-a5
* 99. b7-b6 a5-a4
* 100. a7-a6 a4-a3
* 101. b6-b5 d4-c4
* 102. a6-b6 c4-b4
* 103. b5-b4 a3-a2
* 104. d1-c1 a2-a3
* 105. b6-b7 a3-a4
* 106. b7-b6 a4-a3
* 107. b6-a6 a3-b3
* 108. a6-a5 b3-c3
* 109. c1-b1 c3-b3
* 110. a5-a4 b3-c3
* 111. b1-c1 c3-d3
* 112. b4-b3 d3-d2
* 113. a4-b4 d2-d1
* 114. b3-b2 d1-d2
* 115. c1-b1 d2-c2
* 116. b1-c1 c2-d2
* 117. b4-c4 d2-d3
* 118. c4-c3 d3-d2
* 119. c3-c4 d2-d3
* 120. c4-d4 d3-c3
* 121. b2-a2 c3-c2
* 122. d4-c4 c2-b2
* 123. a2-b2
* NoMove a0 Wins 1.000000,0.000000
* Comment 0 0
0. 1724260281527
1. 1724260281527
2. 1724260281711
3. 1724260281868
4. 1724260282012
5. 1724260282170
6. 1724260282312
7. 1724260282471
8. 1724260282663
9. 1724260282822
10. 1724260283014
11. 1724260283174
12. 1724260283365
13. 1724260283525
14. 1724260284117
15. 1724260284277
16. 1724260284468
17. 1724260284629
18. 1724260284819
19. 1724260284981
20. 1724260285171
21. 1724260285332
22. 1724260285522
23. 1724260285683
24. 1724260285873
25. 1724260286035
26. 1724260286224
27. 1724260286386
28. 1724260286575
29. 1724260286737
30. 1724260286926
31. 1724260287089
32. 1724260287277
33. 1724260287440
34. 1724260287628
35. 1724260287791
36. 1724260287979
37. 1724260288142
38. 1724260288330
39. 1724260288494
40. 1724260288681
41. 1724260288845
42. 1724260289032
43. 1724260289196
44. 1724260289383
45. 1724260289547
46. 1724260289734
47. 1724260289898
48. 1724260290085
49. 1724260290250
50. 1724260290486
51. 1724260290651
52. 1724260290887
53. 1724260291053
54. 1724260291238
55. 1724260291404
56. 1724260291589
57. 1724260291755
58. 1724260291940
59. 1724260292107
60. 1724260292341
61. 1724260292508
62. 1724260292692
63. 1724260292859
64. 1724260293042
65. 1724260293210
66. 1724260293394
67. 1724260293562
68. 1724260293745
69. 1724260293913
70. 1724260294095
71. 1724260294264
72. 1724260294446
73. 1724260294615
74. 1724260294797
75. 1724260294967
76. 1724260295148
77. 1724260295318
78. 1724260295498
79. 1724260295669
80. 1724260295849
81. 1724260296020
82. 1724260296200
83. 1724260296370
84. 1724260296551
85. 1724260296721
86. 1724260296901
87. 1724260297072
88. 1724260297252
89. 1724260297423
90. 1724260297604
91. 1724260297774
92. 1724260297955
93. 1724260298125
94. 1724260298306
95. 1724260298475
96. 1724260298707
97. 1724260298876
98. 1724260299058
99. 1724260299227
100. 1724260299408
101. 1724260299577
102. 1724260299810
103. 1724260299978
104. 1724260300161
105. 1724260300329
106. 1724260300512
107. 1724260300681
108. 1724260300863
109. 1724260301031
110. 1724260301213
111. 1724260301382
112. 1724260301564
113. 1724260301733
114. 1724260301915
115. 1724260302084
116. 1724260302267
117. 1724260302435
118. 1724260302618
119. 1724260302786
120. 1724260302969
121. 1724260303137
122. 1724260303320
123. 1724260303488
124. 1724260303670
125. 1724260303838
126. 1724260304072
127. 1724260304240
128. 1724260304423
129. 1724260304591
130. 1724260304774
131. 1724260304941
132. 1724260305125
133. 1724260305292
134. 1724260305475
135. 1724260305643
136. 1724260305826
137. 1724260305993
138. 1724260306177
139. 1724260306344
140. 1724260306528
141. 1724260306695
142. 1724260306879
143. 1724260307046
144. 1724260307230
145. 1724260307396
146. 1724260307581
147. 1724260307747
148. 1724260307932
149. 1724260308098
150. 1724260308283
151. 1724260308448
152. 1724260308634
153. 1724260308799
154. 1724260308985
155. 1724260309149
156. 1724260309335
157. 1724260309500
158. 1724260309686
159. 1724260309851
160. 1724260310037
161. 1724260310201
162. 1724260310387
163. 1724260310552
164. 1724260310738
165. 1724260310903
166. 1724260311089
167. 1724260311253
168. 1724260311440
169. 1724260311604
170. 1724260311791
171. 1724260311955
172. 1724260312142
173. 1724260312306
174. 1724260312493
175. 1724260312657
176. 1724260312844
177. 1724260313008
178. 1724260313195
179. 1724260313359
180. 1724260313546
181. 1724260313711
182. 1724260313896
183. 1724260314061
184. 1724260314247
185. 1724260314412
186. 1724260314598
187. 1724260314762
188. 1724260314950
189. 1724260315113
190. 1724260315301
191. 1724260315464
192. 1724260315651
193. 1724260315815
194. 1724260316002
195. 1724260316166
196. 1724260316354
197. 1724260316516
198. 1724260316705
199. 1724260316867
200. 1724260317055
201. 1724260317217
202. 1724260317406
203. 1724260317568
204. 1724260317758
205. 1724260317919
206. 1724260318109
207. 1724260318269
208. 1724260318460
209. 1724260318620
210. 1724260318862
211. 1724260319021
212. 1724260319213
213. 1724260319372
214. 1724260319564
215. 1724260319722
216. 1724260319864
217. 1724260320023
218. 1724260320215
219. 1724260320374
220. 1724260320566
221. 1724260320724
222. 1724260320866
223. 1724260321025
224. 1724260321217
225. 1724260321376
226. 1724260321518
227. 1724260321676
228. 1724260321819
229. 1724260321977
230. 1724260322120
231. 1724260322278
232. 1724260322421
233. 1724260322578
234. 1724260322772
235. 1724260322929
236. 1724260323122
237. 1724260323280
238. 1724260323474
239. 1724260323630
240. 1724260323774
241. 1724260323931
242. 1724260324076
243. 1724260324231
244. 1724260324426
245. 1724260324582
