INITIAL
* 1:21am Aug 22, 2024
* a0 vs a1
* 1 2 2 2 2 2 5 1 2 2 2 2 2 5
* X X X X
* X X X X
* X X X X
* X X X X
* X X X X
* X X X X
* X X X X
* X X X X
* first 1
* time 900
* 1. a8(m) b3(P)
* 2. c3(P) c5(k)
* 3. b4(m) b7(R)
* 4. d7(p) d2(G)
* 5. c8(M) b5(p)
* 6. a1(n) b6(r)
* 7. a2(P) a6(p)
* 8. b8(c) b1(G)
* 9. a4(M) c7(g)
* 10. a3(g) d8(c)
* 11. a3-b3 a4-a3
* 12. c2(P) c4(N)
* 13. a5(R) a5-b5
* 14. b2(r) d6(C)
* 15. b4-c4 a7(P)
* 16. c7-c8 c6(p)
* 17. c6-c7 d4(C)
* 18. b6-c6 c1(p)
* 19. a6-b6 d3(K)
* 20. d1(n) d5(N)
* 21. c4-c3 d3-c3
* 22. c5-b5 d4-c4
* 23. b3-b4 d6-b6
* 24. c6-c5 a3-a4
* 25. b5-a5 a2-a3
* 26. b2-a2 d2-d1
* 27. b4-a4 c2-d2
* 28. a4-a3 b1-b2
* 29. c7-c6 c4-b4
* 30. a3-a4 c3-b3
* 31. a8-a7 b6-a6
* 32. d7-d6 d1-c1
* 33. a4-b4 c1-d1
* 34. c5-b5 a6-a2
* 35. a7-a8 a2-a3
* 36. b5-b6 d5-d4
* 37. c8-c7 d4-d3
* 38. b4-c4 d3-d4
* 39. a1-a2 a3-a4
* 40. c4-b4 b3-c3
* 41. a5-a4 b7-a7
* 42. d8-d7 b2-b3
* 43. b8-c8 d4-d5
* 44. d7-d8 d2-c2
* 45. a4-a3 c2-b2
* 46. d6-d7 c3-d3
* 47. b4-b3 d3-d2
* 48. c7-b7 d5-d6
* 49. c8-c7 d6-d5
* 50. c7-a7 d2-d3
* 51. d7-d6 d5-c5
* 52. b7-b8 c5-d5
* 53. b6-a6 b2-b1
* 54. b3-b2 d1-d2
* 55. b2-b1 d3-d4
* 56. d6-d7 d4-d3
* 57. a3-a4 d3-c3
* 58. c6-d6 d2-d1
* 59. b1-b2 d1-c1
* 60. a2-a1 c1-d1
* 61. b2-c2 d5-c5
* 62. c2-b2 c3-c4
* 63. d6-c6 c5-c6
* 64. d7-d6 c6-c7
* 65. d6-d5 c4-b4
* 66. a6-b6 b4-a4
* 67. b2-c2 a4-b4
* 68. b8-b7 c7-c6
* 69. d5-d4 c6-d6
* 70. c2-d2 d1-d2
* 71. d8-c8 d6-c6
* 72. a1-a2 b4-a4
* 73. d4-d5 c6-c7
* 74. a2-b2 c7-c6
* 75. b2-b3 c6-c7
* 76. a7-c7 a4-a3
* 77. c7-d7 d2-d3
* 78. d5-c5 a3-a4
* 79. c8-d8 a4-a5
* 80. b7-b8 d3-d4
* 81. c5-d5 d4-d3
* 82. b6-b7 d3-d4
* 83. b7-c7 d4-d3
* 84. d5-c5 d3-c3
* 85. c5-d5 c3-c2
* 86. c7-c6 a5-a6
* 87. b3-b2 a6-a7
* 88. d5-d4 c2-c3
* 89. b2-c2 c3-d3
* 90. d8-c8 a7-a8
* 91. c6-c7 d3-d2
* 92. c7-b7 a8-a7
* 93. d7-d2 a7-a6
* 94. b7-a7 a6-a5
* 95. b8-b7 a5-b5
* 96. d2-d1 b5-b4
* 97. d1-c1 b4-b5
* 98. c8-b8 b5-c5
* 99. c2-b2 c5-b5
* 100. d4-c4 b5-c5
* 101. b8-c8 c5-b5
* 102. b2-c2 b5-c5
* 103. c4-c5
* NoMove a0 Wins 1.000000,0.000000
* Comment 0 0
0. 1724260860919
1. 1724260860919
2. 1724260861102
3. 1724260861261
4. 1724260861403
5. 1724260861562
6. 1724260861704
7. 1724260861863
8. 1724260862055
9. 1724260862214
10. 1724260862406
11. 1724260862565
12. 1724260862757
13. 1724260862916
14. 1724260863108
15. 1724260863267
16. 1724260863458
17. 1724260863618
18. 1724260863810
19. 1724260863969
20. 1724260864161
21. 1724260864320
22. 1724260864511
23. 1724260864671
24. 1724260864862
25. 1724260865022
26. 1724260865213
27. 1724260865373
28. 1724260865915
29. 1724260866075
30. 1724260866266
31. 1724260866426
32. 1724260866617
33. 1724260866777
34. 1724260866968
35. 1724260867128
36. 1724260867319
37. 1724260867479
38. 1724260867670
39. 1724260867830
40. 1724260868071
41. 1724260868231
42. 1724260868422
43. 1724260868582
44. 1724260868773
45. 1724260868933
46. 1724260869124
47. 1724260869284
48. 1724260869475
49. 1724260869635
50. 1724260869827
51. 1724260869986
52. 1724260870177
53. 1724260870337
54. 1724260870528
55. 1724260870688
56. 1724260870879
57. 1724260871039
58. 1724260871280
59. 1724260871440
60. 1724260871682
61. 1724260871841
62. 1724260872032
63. 1724260872192
64. 1724260872383
65. 1724260872543
66. 1724260872734
67. 1724260872894
68. 1724260873085
69. 1724260873246
70. 1724260873436
71. 1724260873597
72. 1724260873788
73. 1724260873948
74. 1724260874139
75. 1724260874299
76. 1724260874489
77. 1724260874650
78. 1724260874840
79. 1724260875001
80. 1724260875191
81. 1724260875352
82. 1724260875542
83. 1724260875704
84. 1724260875893
85. 1724260876054
86. 1724260876244
87. 1724260876405
88. 1724260876595
89. 1724260876756
90. 1724260876946
91. 1724260877107
92. 1724260877297
93. 1724260877458
94. 1724260877648
95. 1724260877809
96. 1724260877999
97. 1724260878160
98. 1724260878350
99. 1724260878511
100. 1724260878700
101. 1724260878863
102. 1724260879051
103. 1724260879214
104. 1724260879402
105. 1724260879565
106. 1724260879753
107. 1724260879916
108. 1724260880104
109. 1724260880267
110. 1724260880456
111. 1724260880618
112. 1724260880807
113. 1724260880969
114. 1724260881157
115. 1724260881321
116. 1724260881508
117. 1724260881672
118. 1724260881860
119. 1724260882023
120. 1724260882210
121. 1724260882374
122. 1724260882562
123. 1724260882725
124. 1724260882913
125. 1724260883076
126. 1724260883263
127. 1724260883427
128. 1724260883614
129. 1724260883778
130. 1724260883965
131. 1724260884129
132. 1724260884316
133. 1724260884480
134. 1724260884667
135. 1724260884831
136. 1724260885018
137. 1724260885183
138. 1724260885369
139. 1724260885534
140. 1724260885720
141. 1724260885885
142. 1724260886071
143. 1724260886236
144. 1724260886422
145. 1724260886587
146. 1724260886773
147. 1724260886937
148. 1724260887123
149. 1724260887288
150. 1724260887474
151. 1724260887639
152. 1724260887825
153. 1724260887990
154. 1724260888176
155. 1724260888341
156. 1724260888527
157. 1724260888692
158. 1724260888878
159. 1724260889043
160. 1724260889229
161. 1724260889394
162. 1724260889580
163. 1724260889744
164. 1724260889931
165. 1724260890095
166. 1724260890282
167. 1724260890446
168. 1724260890633
169. 1724260890797
170. 1724260890983
171. 1724260891148
172. 1724260891334
173. 1724260891498
174. 1724260891685
175. 1724260891849
176. 1724260892037
177. 1724260892200
178. 1724260892387
179. 1724260892551
180. 1724260892738
181. 1724260892902
182. 1724260893089
183. 1724260893253
184. 1724260893440
185. 1724260893603
186. 1724260893791
187. 1724260893954
188. 1724260894142
189. 1724260894305
190. 1724260894493
191. 1724260894656
192. 1724260894844
193. 1724260895008
194. 1724260895196
195. 1724260895358
196. 1724260895547
197. 1724260895709
198. 1724260895898
199. 1724260896060
200. 1724260896249
201. 1724260896411
202. 1724260896600
203. 1724260896762
204. 1724260896951
205. 1724260897113
