INITIAL
* 11:58am Jul 23, 2024
* a1 vs a0
* 1 2 2 2 2 2 5 1 2 2 2 2 2 5
* X X X X
* X X X X
* X X X X
* X X X X
* X X X X
* X X X X
* X X X X
* X X X X
* first 0
* time 900
* 1. c5(G) b3(M)
* 2. b6(K) b2(c)
* 3. c4(P) c8(m)
* 4. b5(N) c6(R)
* 5. b7(m) a7(P)
* 6. b4(p) a1(c)
* 7. c1(p) c2(P)
* 8. a2(P) d1(N)
* 9. a4(g) d6(M)
* 10. a6(r) a6-a7
* 11. c4-b4 b1(p)
* 12. c5-c4 d3(n)
* 13. a8(n) c1-c2
* 14. b3-b2 a7-a6
* 15. b2-b1 d2(k)
* 16. c4-c5 a8-a7
* 17. c7(C) d4(P)
* 18. b1-c1 a3(g)
* 19. d7(p) a4-b4
* 20. c3(p) c8-c7
* 21. c1-c2 c3-b3
* 22. d5(G) b4-b5
* 23. b6-b5 d3-c3
* 24. c5-c4 a7-a8
* 25. d4-d3 b3-b2
* 26. b5-c5 a6-a7
* 27. c5-b5 b2-b1
* 28. c2-c3 d2-d1
* 29. d3-d4 a3-b3
* 30. a2-b2 d8(R)
* 31. a5(C) b3-b4
* 32. a5-a6 d1-d2
* 33. a6-a5 c7-c6
* 34. c3-c2 c6-d6
* 35. b2-a2 d7-c7
* 36. c4-c3 d6-d7
* 37. c3-b3 a7-a6
* 38. d5-d6 d2-c2
* 39. b3-a3 b7-b6
* 40. d8-c8 c7-b7
* 41. d4-d5 a1-a3
* 42. a2-a1 d7-d8
* 43. d6-d7 b6-c6
* 44. d7-c7 c2-c1
* 45. c7-b7 d8-d7
* 46. b7-c7 c6-c5
* 47. a5-a8 d7-d8
* IllegalAction,a1-c1 a0 Wins 0.000000,1.000000
* Comment 0 0
0. 1721707135250
1. 1721707135250
2. 1721707135437
3. 1721707135593
4. 1721707135741
5. 1721707135893
6. 1721707136037
7. 1721707136193
8. 1721707136341
9. 1721707136497
10. 1721707136689
11. 1721707136845
12. 1721707136993
13. 1721707137149
14. 1721707137341
15. 1721707137497
16. 1721707137641
17. 1721707137801
18. 1721707137993
19. 1721707138149
20. 1721707138293
21. 1721707138453
22. 1721707138645
23. 1721707138801
24. 1721707138945
25. 1721707139105
26. 1721707139297
27. 1721707139453
28. 1721707139597
29. 1721707139757
30. 1721707139949
31. 1721707140105
32. 1721707140253
33. 1721707140409
34. 1721707140601
35. 1721707140761
36. 1721707140949
37. 1721707141113
38. 1721707141301
39. 1721707141461
40. 1721707141653
41. 1721707141813
42. 1721707142001
43. 1721707142161
44. 1721707142353
45. 1721707142513
46. 1721707142705
47. 1721707142865
48. 1721707143057
49. 1721707143217
50. 1721707143405
51. 1721707143565
52. 1721707143757
53. 1721707143917
54. 1721707144109
55. 1721707144269
56. 1721707144461
57. 1721707144621
58. 1721707144809
59. 1721707144969
60. 1721707145161
61. 1721707145321
62. 1721707145513
63. 1721707145673
64. 1721707145865
65. 1721707146025
66. 1721707146213
67. 1721707146373
68. 1721707146565
69. 1721707146725
70. 1721707146921
71. 1721707147077
72. 1721707147269
73. 1721707147425
74. 1721707147569
75. 1721707147725
76. 1721707147869
77. 1721707148029
78. 1721707148221
79. 1721707148377
80. 1721707148521
81. 1721707148677
82. 1721707148821
83. 1721707148977
84. 1721707149125
85. 1721707149277
86. 1721707149429
87. 1721707149581
88. 1721707149725
89. 1721707149885
90. 1721707150077
91. 1721707150233
92. 1721707150377
93. 1721707150533
94. 1721707150677
