INITIAL
* 0:20pm Jul 23, 2024
* a1 vs a0
* 1 2 2 2 2 2 5 1 2 2 2 2 2 5
* X X X X
* X X X X
* X X X X
* X X X X
* X X X X
* X X X X
* X X X X
* X X X X
* first 1
* time 900
* 1. c5(r) b3(c)
* 2. b6(K) b2(p)
* 3. c4(P) c8(P)
* 4. b4(G) c7(c)
* 5. a6(p) d2(n)
* 6. b7(P) d1(r)
* 7. a7(P) b8(p)
* 8. c2(C) b5(R)
* 9. c3(k) d3(p)
* 10. d5(P) b1(m)
* 11. d2-c2 d4(m)
* 12. a6-a7 c6(N)
* 13. d3-d2 c8-b8
* 14. c3-d3 a3(n)
* 15. d6(g) b7-a7
* 16. d4-c4 b6-a6
* 17. b3-c3 b4-c4
* 18. d6-d5 b8-c8
* 19. a1(p) c4-d4
* 20. a8(M) c6-b6
* 21. c5-c4 d4-c4
* 22. a4(R) b6-b7
* 23. c7-c6 c1(M)
* 24. d5-d4 a5(g)
* 25. c6-b6 a4-b4
* 26. d4-c4 b7-b8
* 27. c4-c5 a6-a5
* 28. c5-d5 a7-a6
* 29. d5-c5 b5-b6
* 30. b1-c1 d8(G)
* 31. b2-b3 d7(C)
* 32. c3-c4 d7-c7
* 33. a3-a4 a2(N)
* 34. a1-b1 c7-c6
* 35. c5-c6 b8-b7
* 36. b3-b2 a6-a7
* IllegalAction,c4-c7 a0 Wins 0.000000,1.000000
* Comment 0 0
0. 1721708449922
1. 1721708449922
2. 1721708450109
3. 1721708450269
4. 1721708450461
5. 1721708450617
6. 1721708450809
7. 1721708450965
8. 1721708451109
9. 1721708451269
10. 1721708451461
11. 1721708451617
12. 1721708451761
13. 1721708451917
14. 1721708452061
15. 1721708452225
16. 1721708452413
17. 1721708452569
18. 1721708452713
19. 1721708452873
20. 1721708453065
21. 1721708453221
22. 1721708453365
23. 1721708453521
24. 1721708453665
25. 1721708453825
26. 1721708454017
27. 1721708454173
28. 1721708454317
29. 1721708454473
30. 1721708454617
31. 1721708454777
32. 1721708454969
33. 1721708455125
34. 1721708455269
35. 1721708455429
36. 1721708455621
37. 1721708455777
38. 1721708455925
39. 1721708456077
40. 1721708456221
41. 1721708456381
42. 1721708456573
43. 1721708456729
44. 1721708456873
45. 1721708457029
46. 1721708457173
47. 1721708457333
48. 1721708457525
49. 1721708457681
50. 1721708457825
51. 1721708457981
52. 1721708458125
53. 1721708458285
54. 1721708458477
55. 1721708458633
56. 1721708458777
57. 1721708458933
58. 1721708459077
59. 1721708459237
60. 1721708459429
61. 1721708459585
62. 1721708459729
63. 1721708459885
64. 1721708460029
65. 1721708460189
66. 1721708460381
67. 1721708460537
68. 1721708460681
69. 1721708460841
70. 1721708461029
71. 1721708461189
72. 1721708461385
