INITIAL
* 11:52am Jul 23, 2024
* a1 vs a0
* 1 2 2 2 2 2 5 1 2 2 2 2 2 5
* X X X X
* X X X X
* X X X X
* X X X X
* X X X X
* X X X X
* X X X X
* X X X X
* first 0
* time 900
* 1. c5(N) b3(p)
* 2. b6(N) b2(R)
* 3. c4(C) c8(k)
* 4. b5(P) c6(M)
* 5. b7(M) a7(m)
* 6. b4(r) a8(K)
* 7. a1(G) a2(R)
* 8. d5(n) c1(n)
* 9. b8(P) a5(P)
* 10. d1(P) a4(p)
* 11. a8-a7 b4-c4
* 12. b2-b3 d4(C)
* 13. b5-b4 a4-a5
* 14. d2(p) c4-d4
* 15. c5-c4 a6(P)
* 16. d1-d2 a5-a6
* 17. a3(c) d5-c5
* 18. b1(p) d7(g)
* 19. c2(g) b1-b2
* 20. b6-b5 d4-c4
* 21. b4-a4 a6-a7
* 22. b8-a8 c4-b4
* 23. c3(c) c3-c4
* 24. d3(p) d3-d2
* 25. c6-c5 c1-b1
* 26. b7-b8 c4-c3
* 27. c7(r) b4-b5
* 28. b3-c3 b5-a5
* 29. c5-d5 a7-a8
* 30. c3-b3 c8-b8
* 31. d5-c5 a3-a1
* 32. a4-b4 c7-c8
* 33. c5-b5 a5-a4
* 34. b3-c3 a8-a7
* 35. b4-c4 a7-a6
* 36. c3-b3 d8(m)
* 37. c4-c3 a4-b4
* 38. c3-d3 b8-b7
* 39. a2-a1 b7-b6
* 40. b5-c5 d2-d1
* 41. c5-c6 b6-c6
* 42. d3-d2 d1-d2
* 43. b3-c3 c6-b6
* 44. a1-b1 a6-a5
* 45. b1-c1 a5-a6
* 46. c3-d3 b2-a2
* 47. d6(G) d7-c7
* 48. d6-d5 a2-a1
* 49. d3-c3 a6-a7
* 50. c3-d3 b4-b5
* 51. d5-d6 c2-c1
* 52. d6-c6 d2-d1
* 53. c6-c7 c1-b1
* 54. c7-d7 b1-b2
* 55. d3-d2 b2-b1
* 56. d2-d3 a7-a8
* 57. d3-d4 a8-a7
* 58. d4-c4 a7-b7
* 59. d7-c7 b7-a7
* 60. c4-c3 a7-a8
* 61. c3-c4 a1-a2
* 62. c4-d4 b5-c5
* 63. c7-c6 a8-a7
* 64. d4-d5 b6-b5
* 65. d5-c5 a2-a1
* 66. c6-c7 b1-c1
* 67. c7-c8 a7-a6
* 68. c5-c6 d1-d2
* 69. c8-b8 a6-a7
* 70. b8-a8 a1-b1
* 71. a8-b8 d2-d3
* 72. c6-b6 b5-c5
* 73. b6-a6 d3-d2
* 74. b8-b7 c1-c2
* 75. a6-a7 d2-d3
* 76. b7-c7 c5-b5
* 77. c7-c6 c2-c1
* 78. c6-b6 d3-d2
* 79. a7-a6 c1-d1
* 80. a6-a7 b1-c1
* 81. a7-a8 d2-d3
* 82. b6-a6 b5-a5
* 83. a6-b6 c1-c2
* 84. b6-b5 a5-a6
* 85. a8-a7 c2-c3
* 86. b5-a5 a6-a7
* 87. a5-a6 c3-b3
* 88. a6-a5 d3-c3
* 89. a5-a6 d1-c1
* 90. a6-a5 a7-b7
* 91. a5-b5 c3-c2
* 92. b5-b6 b3-a3
* 93. b6-c6 d8-c8
* 94. c6-c5 b7-a7
* 95. c5-d5 c1-d1
* 96. d5-d6 c2-c3
* 97. d6-d7 a3-b3
* 98. d7-d6 c3-c4
* 99. d6-d5 d1-c1
* 100. d5-c5 b3-a3
* 101. c5-b5 c4-d4
* 102. b5-a5 c8-d8
* 103. a5-b5 d4-d5
* 104. b5-a5 a3-a4
* 105. a5-a6 a4-b4
* 106. a6-a5 b4-b3
* 107. a5-a6 a7-a6
* NoMove a0 Wins 0.000000,1.000000
* Comment 0 0
0. 1721706720895
1. 1721706720895
2. 1721706721081
3. 1721706721237
4. 1721706721381
5. 1721706721537
6. 1721706721681
7. 1721706721845
8. 1721706722033
9. 1721706722189
10. 1721706722337
11. 1721706722493
12. 1721706722689
13. 1721706722841
14. 1721706722985
15. 1721706723141
16. 1721706723289
17. 1721706723445
18. 1721706723637
19. 1721706723797
20. 1721706723993
21. 1721706724145
22. 1721706724289
23. 1721706724445
24. 1721706724589
25. 1721706724745
26. 1721706724889
27. 1721706725045
28. 1721706725189
29. 1721706725349
30. 1721706725541
31. 1721706725697
32. 1721706725841
33. 1721706726001
34. 1721706726193
35. 1721706726349
36. 1721706726493
37. 1721706726649
38. 1721706726793
39. 1721706726949
40. 1721706727093
41. 1721706727249
42. 1721706727393
43. 1721706727549
44. 1721706727697
45. 1721706727853
46. 1721706727997
47. 1721706728153
48. 1721706728297
49. 1721706728453
50. 1721706728597
51. 1721706728753
52. 1721706728897
53. 1721706729053
54. 1721706729201
55. 1721706729353
56. 1721706729501
57. 1721706729653
58. 1721706729801
59. 1721706729953
60. 1721706730101
61. 1721706730253
62. 1721706730401
63. 1721706730557
64. 1721706730701
65. 1721706730857
66. 1721706731005
67. 1721706731157
68. 1721706731305
69. 1721706731457
70. 1721706731605
71. 1721706731757
72. 1721706731905
73. 1721706732057
74. 1721706732205
75. 1721706732357
76. 1721706732509
77. 1721706732661
78. 1721706732809
79. 1721706732957
80. 1721706733109
81. 1721706733265
82. 1721706733409
83. 1721706733561
84. 1721706733709
85. 1721706733861
86. 1721706734013
87. 1721706734161
88. 1721706734313
89. 1721706734461
90. 1721706734613
91. 1721706734761
92. 1721706734913
93. 1721706735061
94. 1721706735213
95. 1721706735361
96. 1721706735513
97. 1721706735661
98. 1721706735817
99. 1721706735965
100. 1721706736117
101. 1721706736265
102. 1721706736417
103. 1721706736565
104. 1721706736717
105. 1721706736865
106. 1721706737017
107. 1721706737165
108. 1721706737317
109. 1721706737465
110. 1721706737621
111. 1721706737765
112. 1721706737925
113. 1721706738117
114. 1721706738269
115. 1721706738417
116. 1721706738573
117. 1721706738717
118. 1721706738873
119. 1721706739021
120. 1721706739173
121. 1721706739321
122. 1721706739477
123. 1721706739669
124. 1721706739829
125. 1721706740021
126. 1721706740177
127. 1721706740321
128. 1721706740477
129. 1721706740621
130. 1721706740777
131. 1721706740921
132. 1721706741077
133. 1721706741225
134. 1721706741377
135. 1721706741525
136. 1721706741681
137. 1721706741873
138. 1721706742029
139. 1721706742173
140. 1721706742329
141. 1721706742477
142. 1721706742633
143. 1721706742829
144. 1721706742981
145. 1721706743125
146. 1721706743281
147. 1721706743429
148. 1721706743589
149. 1721706743777
150. 1721706743937
151. 1721706744129
152. 1721706744285
153. 1721706744429
154. 1721706744589
155. 1721706744785
156. 1721706744937
157. 1721706745129
158. 1721706745285
159. 1721706745429
160. 1721706745589
161. 1721706745785
162. 1721706745937
163. 1721706746081
164. 1721706746241
165. 1721706746433
166. 1721706746589
167. 1721706746781
168. 1721706746941
169. 1721706747133
170. 1721706747293
171. 1721706747485
172. 1721706747641
173. 1721706747833
174. 1721706747993
175. 1721706748185
176. 1721706748349
177. 1721706748537
178. 1721706748697
179. 1721706748885
180. 1721706749045
181. 1721706749237
182. 1721706749397
183. 1721706749585
184. 1721706749749
185. 1721706749937
186. 1721706750097
187. 1721706750289
188. 1721706750449
189. 1721706750637
190. 1721706750801
191. 1721706750989
192. 1721706751149
193. 1721706751341
194. 1721706751501
195. 1721706751689
196. 1721706751853
197. 1721706752041
198. 1721706752205
199. 1721706752393
200. 1721706752553
201. 1721706752741
202. 1721706752905
203. 1721706753093
204. 1721706753257
205. 1721706753441
206. 1721706753605
207. 1721706753797
208. 1721706753957
209. 1721706754149
210. 1721706754309
211. 1721706754493
212. 1721706754661
213. 1721706754849
214. 1721706755009
