INITIAL
* 11:51am Jul 23, 2024
* a0 vs a1
* 1 2 2 2 2 2 5 1 2 2 2 2 2 5
* X X X X
* X X X X
* X X X X
* X X X X
* X X X X
* X X X X
* X X X X
* X X X X
* first 0
* time 900
* 1. a8(R) a3(r)
* 2. c3(p) a7(k)
* 3. b5(p) a6(G)
* 4. c8(c) d5(g)
* 5. d1(n) c7(C)
* 6. a1(n) c4(p)
* 7. c1(p) d2(p)
* 8. c5(c) b2(P)
* 9. d6(C) d4(r)
* 10. a5(K) b1(P)
* 11. c7-a7 a1-b1
* 12. b4(g) c8-c7
* 13. a2(m) c6(m)
* 14. b6(P) d8(P)
* 15. d3(G) b1-b2
* 16. a7-c7 c6-d6
* 17. c7-c6 d7(P)
* 18. b8(N) c2(N)
* 19. d7-c7 b5-b6
* 20. d3-d4 c3-d3
* 21. c2-c1 d3-c3
* 22. d4-d5 c3-c2
* 23. c1-b1 d6-c6
* 24. d5-d4 a4(M)
* 25. b3(R) c6-c7
* 26. b3-a3 b6-b5
* 27. d8-c8 b2-b3
* 28. b7(M) b4-a4
* 29. b1-c1 a4-b4
* 30. d4-d3 c4-c3
* 31. c1-b1 b4-c4
* 32. b7-c7 b5-b4
* 33. a3-a4 c4-d4
* 34. a4-b4 a2-b2
* 35. a8-a7 c5-d5
* 36. b4-a4 d4-d3
* 37. a4-a3 c3-c4
* 38. b1-a1 b2-b1
* 39. a3-a4 d3-d4
* 40. c7-c6 b1-a1
* 41. a4-a3 b3-c3
* 42. c6-c5 c3-b3
* 43. a6-b6
* IllegalAction,d5-b5 a0 Wins 1.000000,0.000000
* Comment 0 0
0. 1721706699613
1. 1721706699613
2. 1721706699801
3. 1721706699957
4. 1721706700101
5. 1721706700257
6. 1721706700401
7. 1721706700557
8. 1721706700701
9. 1721706700857
10. 1721706701005
11. 1721706701161
12. 1721706701353
13. 1721706701509
14. 1721706701653
15. 1721706701809
16. 1721706701957
17. 1721706702113
18. 1721706702257
19. 1721706702413
20. 1721706702561
21. 1721706702713
22. 1721706702857
23. 1721706703013
24. 1721706703157
25. 1721706703313
26. 1721706703461
27. 1721706703621
28. 1721706703809
29. 1721706703965
30. 1721706704109
31. 1721706704269
32. 1721706704465
33. 1721706704617
34. 1721706704761
35. 1721706704921
36. 1721706705113
37. 1721706705269
38. 1721706705413
39. 1721706705573
40. 1721706705765
41. 1721706705921
42. 1721706706065
43. 1721706706221
44. 1721706706365
45. 1721706706525
46. 1721706706717
47. 1721706706873
48. 1721706707017
49. 1721706707173
50. 1721706707317
51. 1721706707477
52. 1721706707669
53. 1721706707825
54. 1721706707969
55. 1721706708125
56. 1721706708273
57. 1721706708429
58. 1721706708621
59. 1721706708777
60. 1721706708921
61. 1721706709077
62. 1721706709221
63. 1721706709381
64. 1721706709573
65. 1721706709729
66. 1721706709873
67. 1721706710029
68. 1721706710173
69. 1721706710333
70. 1721706710525
71. 1721706710681
72. 1721706710825
73. 1721706710985
74. 1721706711177
75. 1721706711333
76. 1721706711477
77. 1721706711633
78. 1721706711777
79. 1721706711937
80. 1721706712129
81. 1721706712285
82. 1721706712429
83. 1721706712585
84. 1721706712729
85. 1721706712889
