INITIAL
* 11:33am Jul 23, 2024
* a1 vs a0
* 1 2 2 2 2 2 5 1 2 2 2 2 2 5
* X X X X
* X X X X
* X X X X
* X X X X
* X X X X
* X X X X
* X X X X
* X X X X
* first 0
* time 900
* 1. c5(G) b3(g)
* 2. b6(p) b2(N)
* 3. c4(G) b3-b2
* 4. b4(g) d5(K)
* 5. c2(P) a2(m)
* 6. b1(p) a3(p)
* 7. d3(r) b5(N)
* 8. a6(c) b8(k)
* 9. d6(P) a5(n)
* 10. c8(m) b4-b3
* 11. d8(P) b2-c2
* 12. b5-b6 b3-b4
* 13. c1(R) c7(c)
* 14. d4(M) a5-b5
* 15. d2(p) d7(C)
* 16. d1(P) a8(n)
* 17. c3(C) a1(R)
* 18. a7(M) b4-c4
* 19. c5-c4 c2-c3
* 20. c4-b4 c3-b3
* 21. d4-c4 b7(r)
* 22. c1-c2 b3-b2
* 23. c6(P) d2-d1
* 24. c2-c1 d3-c3
* 25. b4-b5 a4(p)
* 26. a7-b7 a6-a7
* 27. b6-a6 a4-a5
* 28. c1-b1 d1-c1
* 29. a6-a7 a3-a4
* 30. b5-a5 c3-b3
* 31. b1-c1 b2-c2
* 32. c4-d4 c7-a7
* 33. a5-a4 b3-b4
* 34. a4-a5 a2-a1
* 35. b7-a7 b4-b3
* 36. d5-c5 b3-c3
* 37. c5-b5 c3-c4
* 38. d4-d3 c2-d2
* 39. a5-a6 c8-d8
* 40. c6-b6 d8-c8
* 41. d7-c7 d2-c2
* 42. c1-b1 c8-d8
* 43. b5-a5 c2-c3
* 44. d6-d7 d8-d7
* 45. c7-c8 c3-b3
* 46. a7-a8 c4-b4
* 47. b6-b5 b4-b5
* 48. c8-d8 d7-d6
* 49. d3-c3 b3-b2
* 50. c3-d3 a1-a2
* 51. a6-b6 a2-a1
* 52. a8-a7 d6-d7
* 53. b6-a6 a1-b1
* 54. a7-b7 b8-a8
* 55. b7-b6 b5-b4
* 56. b6-b5 b1-c1
* 57. d8-c8 b2-a2
* 58. d3-d4 a8-a7
* 59. d4-c4 c1-b1
* 60. b5-b6 a2-b2
* 61. c8-b8 b4-b5
* 62. c4-c3 a7-a6
* 63. b8-b7 d7-c7
* 64. c3-c4 b2-a2
* 65. c4-c5 c7-b7
* 66. b6-c6 a6-a5
* 67. c6-b6 a5-a4
* 68. b6-c6 a2-b2
* 69. c5-c4 a4-b4
* 70. c6-c7 b2-a2
* 71. c7-d7 b7-a7
* 72. d7-c7 a2-a3
* 73. c4-c3 b5-a5
* 74. c7-b7 a3-b3
* 75. b7-b6 b4-c4
* 76. b6-c6 a5-a6
* 77. c6-c7 c4-c3
* 78. c7-b7 c3-c4
* 79. b7-c7 a7-b7
* 80. c7-d7 c4-b4
* 81. d7-d8 b7-b6
* 82. d8-c8 b4-c4
* 83. c8-c7 c4-b4
* 84. c7-b7 a6-a7
* 85. b7-a7 b1-b2
* 86. a7-a6 b2-a2
* 87. a6-a7 b4-b5
* 88. a7-b7 a2-a3
* 89. b7-b8 b3-c3
* 90. b8-a8 a3-a4
* 91. a8-b8 c3-c4
* 92. b8-b7 b6-b7
* NoMove a0 Wins 0.000000,1.000000
* Comment 0 0
0. 1721705597054
1. 1721705597054
2. 1721705597245
3. 1721705597397
4. 1721705597545
5. 1721705597697
6. 1721705597849
7. 1721705597997
8. 1721705598145
9. 1721705598305
10. 1721705598497
11. 1721705598653
12. 1721705598797
13. 1721705598953
14. 1721705599101
15. 1721705599253
16. 1721705599397
17. 1721705599553
18. 1721705599701
19. 1721705599857
20. 1721705600049
21. 1721705600205
22. 1721705600349
23. 1721705600505
24. 1721705600653
25. 1721705600805
26. 1721705600953
27. 1721705601105
28. 1721705601253
29. 1721705601409
30. 1721705601553
31. 1721705601709
32. 1721705601853
33. 1721705602013
34. 1721705602205
35. 1721705602357
36. 1721705602561
37. 1721705602709
38. 1721705602857
39. 1721705603009
40. 1721705603157
41. 1721705603309
42. 1721705603457
43. 1721705603613
44. 1721705603757
45. 1721705603917
46. 1721705604109
47. 1721705604265
48. 1721705604409
49. 1721705604565
50. 1721705604709
51. 1721705604865
52. 1721705605013
53. 1721705605169
54. 1721705605313
55. 1721705605469
56. 1721705605613
57. 1721705605769
58. 1721705605917
59. 1721705606069
60. 1721705606217
61. 1721705606369
62. 1721705606517
63. 1721705606669
64. 1721705606817
65. 1721705606973
66. 1721705607117
67. 1721705607273
68. 1721705607417
69. 1721705607573
70. 1721705607721
71. 1721705607873
72. 1721705608021
73. 1721705608173
74. 1721705608321
75. 1721705608477
76. 1721705608621
77. 1721705608777
78. 1721705608925
79. 1721705609077
80. 1721705609225
81. 1721705609381
82. 1721705609573
83. 1721705609729
84. 1721705609877
85. 1721705610029
86. 1721705610177
87. 1721705610329
88. 1721705610477
89. 1721705610629
90. 1721705610777
91. 1721705610933
92. 1721705611081
93. 1721705611233
94. 1721705611381
95. 1721705611533
96. 1721705611681
97. 1721705611833
98. 1721705611981
99. 1721705612133
100. 1721705612281
101. 1721705612437
102. 1721705612581
103. 1721705612741
104. 1721705612937
105. 1721705613093
106. 1721705613289
107. 1721705613441
108. 1721705613585
109. 1721705613741
110. 1721705613889
111. 1721705614041
112. 1721705614185
113. 1721705614341
114. 1721705614485
115. 1721705614641
116. 1721705614789
117. 1721705614941
118. 1721705615089
119. 1721705615245
120. 1721705615389
121. 1721705615545
122. 1721705615693
123. 1721705615845
124. 1721705615993
125. 1721705616145
126. 1721705616289
127. 1721705616445
128. 1721705616593
129. 1721705616749
130. 1721705616893
131. 1721705617049
132. 1721705617193
133. 1721705617349
134. 1721705617493
135. 1721705617649
136. 1721705617797
137. 1721705617957
138. 1721705618145
139. 1721705618301
140. 1721705618449
141. 1721705618605
142. 1721705618797
143. 1721705618953
144. 1721705619101
145. 1721705619253
146. 1721705619401
147. 1721705619557
148. 1721705619701
149. 1721705619861
150. 1721705620053
151. 1721705620209
152. 1721705620353
153. 1721705620509
154. 1721705620653
155. 1721705620809
156. 1721705620953
157. 1721705621109
158. 1721705621257
159. 1721705621409
160. 1721705621557
161. 1721705621713
162. 1721705621857
163. 1721705622013
164. 1721705622157
165. 1721705622313
166. 1721705622461
167. 1721705622613
168. 1721705622761
169. 1721705622917
170. 1721705623061
171. 1721705623221
172. 1721705623417
173. 1721705623569
174. 1721705623713
175. 1721705623869
176. 1721705624013
177. 1721705624169
178. 1721705624313
179. 1721705624469
180. 1721705624617
181. 1721705624769
182. 1721705624917
183. 1721705625073
184. 1721705625217
