INITIAL
* 1:22pm Jul 23, 2024
* a0 vs a1
* 1 2 2 2 2 2 5 1 2 2 2 2 2 5
* X X X X
* X X X X
* X X X X
* X X X X
* X X X X
* X X X X
* X X X X
* X X X X
* first 0
* time 900
* 1. a8(P) a3(P)
* 2. c3(p) a7(P)
* 3. b5(r) b7(G)
* 4. c8(g) c7(N)
* 5. d2(r) c5(m)
* 6. d1(K) b2(n)
* 7. c1(g) d8(n)
* 8. c6(C) d7(P)
* 9. a4(k) a6(c)
* 10. b6(N) a1(M)
* 11. d3(p) c8-c7
* 12. d4(M) d6(R)
* 13. a5(R) d5(C)
* 14. b6-a6 c5-d5
* 15. a3-a4 b5-a5
* 16. b3(P) c7-d7
* 17. a2(p) d5-c5
* 18. d4-d3 d7-d6
* 19. b3-c3 a2-a3
* 20. d1-d2 b8(c)
* 21. c6-b6 c5-c6
* 22. b7-b8 d6-d7
* 23. c4(p) c6-c7
* 24. c3-c4 a3-a4
* 25. d2-d1 c2(p)
* 26. b8-c8 a4-a3
* 27. a8-b8 b2-b3
* 28. c4-c3 b3-c3
* 29. d3-c3 b1(m)
* 30. a1-b1 c1-b1
* 31. a7-a8 b4(G)
* 32. b4-c4 b1-a1
* 33. c3-b3 c7-b7
* 34. b3-a3 a1-b1
* 35. d1-d2 b7-b8
* 36. d2-d1 a5-a4
* 37. a3-b3 b1-b2
* 38. c8-d8 d7-d8
* 39. b3-a3 c2-c1
* 40. a3-a2 b2-c2
* 41. a2-b2 a4-a3
* 42. c4-d4 d8-c8
* 43. b2-a2 a3-a4
* 44. a2-b2 c8-d8
* 45. b2-b3 c2-b2
* 46. b3-a3 b2-c2
* 47. a8-a7 b8-a8
* 48. d1-d2 a4-b4
* 49. d2-d3 b4-b3
* 50. b6-c6 b3-c3
* 51. c6-c7 a8-a7
* 52. d4-c4 c2-d2
* 53. c7-c3 a7-a8
* 54. a6-b6 c1-c2
* 55. a3-a2 a8-a7
* 56. b6-a6 d8-c8
* 57. a2-a1 c2-b2
* 58. a6-b6 c8-b8
* 59. c3-b3 a7-b7
* 60. a1-b1 b7-c7
* 61. d3-c3 b8-c8
* 62. c4-d4 c8-b8
* 63. c3-c2 c7-c8
* 64. b3-b8 c8-d8
* 65. b1-c1 d2-d3
* 66. b8-a8 d3-d2
* 67. b6-c6 b2-b3
* 68. d4-c4 b3-a3
* 69. c6-d6 d8-d7
* 70. a8-b8 a3-b3
* 71. d6-c6 d7-c7
* 72. b8-a8 b3-a3
* 73. c1-b1 a3-b3
* 74. a8-a7 c7-c6
* 75. c4-b4 c6-d6
* 76. b4-b3 d6-d5
* 77. b1-b2 d5-d6
* 78. a7-a6 d2-d1
* 79. b3-b4 d1-d2
* 80. a6-b6 d2-d3
* 81. b6-a6 d3-c3
* 82. c2-c3 d6-d7
* 83. b2-b1 d7-d8
* 84. a6-a7 d8-d7
* 85. b1-b2 d7-d6
* 86. b4-c4 d6-d7
* 87. c3-b3 d7-d8
* 88. a7-a8 d8-d7
* 89. b2-a2 d7-c7
* 90. a2-a3 c7-b7
* 91. b3-b2 b7-a7
* 92. a3-a4 a7-a6
* 93. a8-a7 a6-b6
* 94. a4-a5 b6-b5
* 95. b2-b3 b5-a5
* 96. b3-b4 a5-a6
* 97. b4-a4 a6-a7
* 98. c4-c3 a7-b7
* 99. c3-c4 b7-c7
* 100. a4-a5 c7-d7
* 101. c4-c5 d7-d8
* 102. a5-a6 d8-d7
* 103. c5-b5 d7-d6
* 104. a6-a7 d6-c6
* 105. a7-b7 c6-d6
* 106. b5-b6 d6-d5
* 107. b7-c7 d5-d6
* 108. c7-d7 d6-c6
* 109. b6-b5 c6-b6
* 110. b5-a5 b6-a6
* 111. d7-d8 a6-b6
* 112. a5-b5 b6-b7
* 113. b5-b6 b7-a7
* 114. b6-c6 a7-a8
* 115. c6-d6 a8-b8
* 116. d6-d7 b8-c8
* 117. d7-c7 c8-b8
* 118. d8-d7 b8-b7
* 119. d7-d6 b7-b8
* 120. c7-c8 b8-b7
* 121. d6-d7 b7-b8
* 122. d7-c7 b8-a8
* 123. c7-d7 a8-b8
* 124. c8-d8 b8-a8
* 125. d7-c7 a8-b8
* 126. d8-d7 b8-c8
* 127. c7-c8
* NoMove a0 Wins 1.000000,0.000000
* Comment 0 0
0. 1721712126806
1. 1721712126806
2. 1721712126993
3. 1721712127153
4. 1721712127345
5. 1721712127505
6. 1721712127697
7. 1721712127853
8. 1721712128049
9. 1721712128201
10. 1721712128349
11. 1721712128501
12. 1721712128649
13. 1721712128801
14. 1721712128949
15. 1721712129101
16. 1721712129249
17. 1721712129401
18. 1721712129549
19. 1721712129705
20. 1721712129849
21. 1721712130005
22. 1721712130153
23. 1721712130305
24. 1721712130453
25. 1721712130609
26. 1721712130753
27. 1721712130905
28. 1721712131053
29. 1721712131205
30. 1721712131353
31. 1721712131505
32. 1721712131653
33. 1721712131805
34. 1721712131957
35. 1721712132113
36. 1721712132305
37. 1721712132457
38. 1721712132605
39. 1721712132757
40. 1721712132909
41. 1721712133057
42. 1721712133209
43. 1721712133361
44. 1721712133513
45. 1721712133661
46. 1721712133809
47. 1721712133965
48. 1721712134109
49. 1721712134261
50. 1721712134409
51. 1721712134561
52. 1721712134713
53. 1721712134861
54. 1721712135013
55. 1721712135161
56. 1721712135313
57. 1721712135465
58. 1721712135613
59. 1721712135765
60. 1721712135913
61. 1721712136065
62. 1721712136221
63. 1721712136365
64. 1721712136517
65. 1721712136665
66. 1721712136821
67. 1721712136965
68. 1721712137117
69. 1721712137269
70. 1721712137417
71. 1721712137569
72. 1721712137717
73. 1721712137869
74. 1721712138021
75. 1721712138169
76. 1721712138321
77. 1721712138469
78. 1721712138621
79. 1721712138769
80. 1721712138921
81. 1721712139069
82. 1721712139221
83. 1721712139373
84. 1721712139521
85. 1721712139673
86. 1721712139825
87. 1721712139973
88. 1721712140125
89. 1721712140273
90. 1721712140425
91. 1721712140573
92. 1721712140725
93. 1721712140873
94. 1721712141025
95. 1721712141177
96. 1721712141329
97. 1721712141477
98. 1721712141629
99. 1721712141781
100. 1721712141929
101. 1721712142081
102. 1721712142229
103. 1721712142377
104. 1721712142533
105. 1721712142677
106. 1721712142833
107. 1721712142981
108. 1721712143133
109. 1721712143281
110. 1721712143433
111. 1721712143581
112. 1721712143733
113. 1721712143881
114. 1721712144033
115. 1721712144181
116. 1721712144337
117. 1721712144481
118. 1721712144641
119. 1721712144833
120. 1721712144985
121. 1721712145133
122. 1721712145289
123. 1721712145433
124. 1721712145589
125. 1721712145733
126. 1721712145889
127. 1721712146037
128. 1721712146193
129. 1721712146337
130. 1721712146489
131. 1721712146637
132. 1721712146793
133. 1721712146937
134. 1721712147093
135. 1721712147237
136. 1721712147393
137. 1721712147541
138. 1721712147693
139. 1721712147841
140. 1721712147993
141. 1721712148141
142. 1721712148297
143. 1721712148441
144. 1721712148597
145. 1721712148741
146. 1721712148897
147. 1721712149041
148. 1721712149197
149. 1721712149345
150. 1721712149497
151. 1721712149645
152. 1721712149797
153. 1721712149945
154. 1721712150101
155. 1721712150245
156. 1721712150405
157. 1721712150597
158. 1721712150753
159. 1721712150897
160. 1721712151057
161. 1721712151249
162. 1721712151401
163. 1721712151549
164. 1721712151705
165. 1721712151849
166. 1721712152009
167. 1721712152201
168. 1721712152357
169. 1721712152549
170. 1721712152705
171. 1721712152849
172. 1721712153009
173. 1721712153201
174. 1721712153357
175. 1721712153505
176. 1721712153657
177. 1721712153801
178. 1721712153961
179. 1721712154153
180. 1721712154309
181. 1721712154457
182. 1721712154613
183. 1721712154805
184. 1721712154961
185. 1721712155109
186. 1721712155261
187. 1721712155405
188. 1721712155565
189. 1721712155757
190. 1721712155913
191. 1721712156061
192. 1721712156221
193. 1721712156405
194. 1721712156569
195. 1721712156757
196. 1721712156917
197. 1721712157109
198. 1721712157273
199. 1721712157461
200. 1721712157617
201. 1721712157809
202. 1721712157969
203. 1721712158161
204. 1721712158325
205. 1721712158517
206. 1721712158673
207. 1721712158865
208. 1721712159021
209. 1721712159213
210. 1721712159373
211. 1721712159565
212. 1721712159721
213. 1721712159913
214. 1721712160077
215. 1721712160269
216. 1721712160429
217. 1721712160613
218. 1721712160777
219. 1721712160965
220. 1721712161125
221. 1721712161317
222. 1721712161477
223. 1721712161665
224. 1721712161829
225. 1721712162017
226. 1721712162177
227. 1721712162373
228. 1721712162533
229. 1721712162717
230. 1721712162881
231. 1721712163069
232. 1721712163237
233. 1721712163421
234. 1721712163581
235. 1721712163769
236. 1721712163933
237. 1721712164121
238. 1721712164289
239. 1721712164473
240. 1721712164637
241. 1721712164825
242. 1721712164985
243. 1721712165173
244. 1721712165337
245. 1721712165525
246. 1721712165685
247. 1721712165877
248. 1721712166037
249. 1721712166225
250. 1721712166389
251. 1721712166577
252. 1721712166741
253. 1721712166929
