INITIAL
* 11:31am Jul 23, 2024
* a1 vs a0
* 1 2 2 2 2 2 5 1 2 2 2 2 2 5
* X X X X
* X X X X
* X X X X
* X X X X
* X X X X
* X X X X
* X X X X
* X X X X
* first 1
* time 900
* 1. c5(n) b3(p)
* 2. b6(c) b2(P)
* 3. c4(M) a4(p)
* 4. c3(g) d7(r)
* 5. a2(k) a3(R)
* 6. b1(G) a3-a4
* 7. d2(P) b7(P)
* 8. a1(g) a5(m)
* 9. d4(p) a8(P)
* 10. c7(p) c1(K)
* 11. d6(N) a6(C)
* 12. b8(R) d3(p)
* 13. a5-a4 d1(n)
* 14. d7-d6 b5(c)
* 15. c8(C) b1-a1
* 16. d8(m) b2-b3
* 17. d1-d2 a1-b1
* 18. c3-b3 c2(r)
* 19. b3-c3 c4-d4
* 20. c6(N) a6-a5
* 21. d8-c8 c6-c7
* 22. c8-d8 c1-c2
* 23. c5-c4 d4-c4
* 24. d8-d7 b1-c1
* 25. a4-a3 c1-b1
* 26. b4(M) b8-c8
* 27. c3-b3 a5-a2
* 28. d3-c3 c2-c1
* 29. d2-d3 a2-a1
* 30. b6-c6 c4-d4
* 31. c3-c2 c1-d1
* 32. c6-c5 a1-a2
* 33. c2-c3 a7(P)
* 34. d3-d2 d4-d3
* 35. d5(G) d3-c3
* 36. b3-b2 c7-c6
* 37. b2-a2 b7-c7
* 38. b5-a5 c7-b7
* 39. a5-b5 b1-c1
* 40. b5-d5 c1-c2
* 41. a3-a4 b4-c4
* 42. a2-a1 c8-c7
* 43. a1-a2 b7-b8
* 44. a2-b2 c4-d4
* 45. a4-a5 b8-c8
* 46. c5-c2 c3-c2
* 47. b2-a2 c2-b2
* IllegalAction,d5-d3 a0 Wins 0.000000,1.000000
* Comment 0 0
0. 1721705492095
1. 1721705492095
2. 1721705492269
3. 1721705492437
4. 1721705492621
5. 1721705492789
6. 1721705492973
7. 1721705493141
8. 1721705493321
9. 1721705493493
10. 1721705493673
11. 1721705493841
12. 1721705494025
13. 1721705494193
14. 1721705494377
15. 1721705494545
16. 1721705494733
17. 1721705494897
18. 1721705495081
19. 1721705495197
20. 1721705495381
21. 1721705495549
22. 1721705495733
23. 1721705495901
24. 1721705496081
25. 1721705496249
26. 1721705496433
27. 1721705496605
28. 1721705496785
29. 1721705496953
30. 1721705497137
31. 1721705497305
32. 1721705497485
33. 1721705497653
34. 1721705497837
35. 1721705498005
36. 1721705498189
37. 1721705498357
38. 1721705498537
39. 1721705498709
40. 1721705498889
41. 1721705499061
42. 1721705499241
43. 1721705499409
44. 1721705499593
45. 1721705499761
46. 1721705499941
47. 1721705500113
48. 1721705500293
49. 1721705500465
50. 1721705500645
51. 1721705500821
52. 1721705500997
53. 1721705501169
54. 1721705501345
55. 1721705501521
56. 1721705501697
57. 1721705501873
58. 1721705502049
59. 1721705502221
60. 1721705502401
61. 1721705502573
62. 1721705502749
63. 1721705502925
64. 1721705503101
65. 1721705503277
66. 1721705503457
67. 1721705503629
68. 1721705503805
69. 1721705503977
70. 1721705504153
71. 1721705504333
72. 1721705504505
73. 1721705504681
74. 1721705504857
75. 1721705505029
76. 1721705505209
77. 1721705505381
78. 1721705505557
79. 1721705505733
80. 1721705505909
81. 1721705506085
82. 1721705506261
83. 1721705506433
84. 1721705506609
85. 1721705506785
86. 1721705506961
87. 1721705507141
88. 1721705507317
89. 1721705507485
90. 1721705507665
91. 1721705507837
92. 1721705508013
93. 1721705508189
94. 1721705508365
