INITIAL
* 11:33am Jul 23, 2024
* a0 vs a1
* 1 2 2 2 2 2 5 1 2 2 2 2 2 5
* X X X X
* X X X X
* X X X X
* X X X X
* X X X X
* X X X X
* X X X X
* X X X X
* first 1
* time 900
* 1. a8(m) a3(N)
* 2. c3(C) a7(p)
* 3. b5(m) b7(c)
* 4. c8(R) b3(n)
* 5. a2(p) d5(p)
* 6. b3-c3 c5(M)
* 7. c6(G) a4(P)
* 8. c1(P) d4(P)
* 9. c2(n) b1(p)
* 10. a5(P) b4(p)
* 11. b1-c1 c7(r)
* 12. b6(P) b2(N)
* 13. c3-b3 d1(R)
* 14. b3-b2 d3(g)
* 15. d8(K) a4-b4
* 16. c2-c3 a3-b3
* 17. d6(M) b3-c3
* 18. b5-a5 b4-a4
* 19. d5-d4 d2(r)
* 20. c1-c2 b8(g)
* 21. d2-d1 d7(c)
* 22. c2-d2 c6-c7
* 23. b2-b3 c4(k)
* 24. d2-c2 b6-b5
* 25. a2-a3 c3-b3
* 26. a6(G) a6-a5
* 27. b8-c8 d6-d7
* 28. a8-b8 d8-c8
* 29. a3-a4 a5-a4
* 30. a7-a8 b5-b6
* 31. a1(C) c8-d8
* 32. d3-d2 a4-a5
* 33. d2-d3 b6-c6
* 34. a8-a7 b3-a3
* 35. b8-c8 a1-b1
* 36. b7-b8 c6-b6
* 37. d1-c1 c7-c6
* 38. c8-c7 a5-b5
* 39. c7-c8 d7-c7
* 40. d3-c3 c6-d6
* 41. c8-c7 b6-b7
* 42. c4-c5 b1-a1
* 43. d4-c4 d6-d5
* 44. c5-b5 a3-b3
* 45. a7-a8 a1-a2
* 46. b5-b6 a2-a1
* 47. c7-b7 a1-a2
* 48. b7-a7 d5-d4
* 49. c1-d1 a2-a8
* 50. c3-d3 d8-d7
* 51. d3-c3 b3-a3
* IllegalAction,b8-a8 a1 Wins 0.000000,1.000000
* Comment 0 0
0. 1721705633090
1. 1721705633090
2. 1721705633277
3. 1721705633433
4. 1721705633577
5. 1721705633733
6. 1721705633877
7. 1721705634033
8. 1721705634181
9. 1721705634337
10. 1721705634529
11. 1721705634685
12. 1721705634829
13. 1721705634985
14. 1721705635133
15. 1721705635285
16. 1721705635433
17. 1721705635589
18. 1721705635733
19. 1721705635889
20. 1721705636033
21. 1721705636189
22. 1721705636333
23. 1721705636489
24. 1721705636637
25. 1721705636793
26. 1721705636989
27. 1721705637141
28. 1721705637285
29. 1721705637445
30. 1721705637641
31. 1721705637797
32. 1721705637993
33. 1721705638145
34. 1721705638289
35. 1721705638445
36. 1721705638589
37. 1721705638745
38. 1721705638889
39. 1721705639049
40. 1721705639241
41. 1721705639397
42. 1721705639541
43. 1721705639697
44. 1721705639841
45. 1721705640001
46. 1721705640193
47. 1721705640353
48. 1721705640545
49. 1721705640705
50. 1721705640897
51. 1721705641053
52. 1721705641245
53. 1721705641405
54. 1721705641597
55. 1721705641753
56. 1721705641897
57. 1721705642057
58. 1721705642249
59. 1721705642405
60. 1721705642549
61. 1721705642705
62. 1721705642849
63. 1721705643009
64. 1721705643201
65. 1721705643357
66. 1721705643501
67. 1721705643661
68. 1721705643853
69. 1721705644009
70. 1721705644153
71. 1721705644313
72. 1721705644505
73. 1721705644661
74. 1721705644805
75. 1721705644965
76. 1721705645157
77. 1721705645313
78. 1721705645457
79. 1721705645617
80. 1721705645809
81. 1721705645965
82. 1721705646113
83. 1721705646269
84. 1721705646461
85. 1721705646617
86. 1721705646761
87. 1721705646921
88. 1721705647113
89. 1721705647269
90. 1721705647413
91. 1721705647573
92. 1721705647765
93. 1721705647921
94. 1721705648069
95. 1721705648225
96. 1721705648417
97. 1721705648573
98. 1721705648717
99. 1721705648877
100. 1721705649069
101. 1721705649225
102. 1721705649369
