INITIAL
* 1:27pm Jul 23, 2024
* a0 vs a1
* 1 2 2 2 2 2 5 1 2 2 2 2 2 5
* X X X X
* X X X X
* X X X X
* X X X X
* X X X X
* X X X X
* X X X X
* X X X X
* first 0
* time 900
* 1. a8(R) a3(P)
* 2. c3(p) a7(r)
* 3. a5(n) c4(P)
* 4. c8(p) a2(M)
* 5. a4(P) b1(m)
* 6. b6(p) a6(M)
* 7. c1(G) b5(K)
* 8. d1(p) b4(c)
* 9. d8(g) b3(N)
* 10. d4(C) a5-a4
* 11. c1-b1 d7(r)
* 12. c6(P) a7-a8
* 13. c7(m) a1(p)
* 14. a6-a5 d3(N)
* 15. b1-a1 d1-c1
* 16. b3-b4 c3-b3
* 17. c5(n) b6-a6
* 18. a1-b1 d6(P)
* 19. b1-c1 a6-b6
* 20. c1-b1 c5-c6
* 21. d5(g) b2(c)
* 22. b4-a4 d2(C)
* 23. b5-c5 b6-b5
* 24. c4-b4 a8-a7
* 25. a3-b3 b2-b4
* 26. a5-b5 d5-d6
* 27. a2-a1
* IllegalAction,b4-b2 a0 Wins 1.000000,0.000000
* Comment 0 0
0. 1721712436603
1. 1721712436603
2. 1721712436789
3. 1721712436949
4. 1721712437137
5. 1721712437301
6. 1721712437489
7. 1721712437649
8. 1721712437841
9. 1721712438001
10. 1721712438189
11. 1721712438349
12. 1721712438541
13. 1721712438701
14. 1721712438893
15. 1721712439057
16. 1721712439249
17. 1721712439401
18. 1721712439593
19. 1721712439753
20. 1721712439945
21. 1721712440105
22. 1721712440301
23. 1721712440453
24. 1721712440597
25. 1721712440753
26. 1721712440901
27. 1721712441053
28. 1721712441201
29. 1721712441357
30. 1721712441553
31. 1721712441709
32. 1721712441901
33. 1721712442057
34. 1721712442201
35. 1721712442361
36. 1721712442553
37. 1721712442713
38. 1721712442905
39. 1721712443061
40. 1721712443257
41. 1721712443413
42. 1721712443605
43. 1721712443765
44. 1721712443957
45. 1721712444117
46. 1721712444309
47. 1721712444465
48. 1721712444657
49. 1721712444813
50. 1721712444957
51. 1721712445117
52. 1721712445309
53. 1721712445469
