INITIAL
* 11:42am Jul 23, 2024
* a1 vs a0
* 1 2 2 2 2 2 5 1 2 2 2 2 2 5
* X X X X
* X X X X
* X X X X
* X X X X
* X X X X
* X X X X
* X X X X
* X X X X
* first 1
* time 900
* 1. c5(m) b3(G)
* 2. b6(M) b2(p)
* 3. c4(G) a4(p)
* 4. d3(P) d7(K)
* 5. b4(k) c8(c)
* 6. a2(R) b1(p)
* 7. c1(P) c4-c5
* 8. a7(p) b3-b2
* 9. d2(N) c7(P)
* 10. c2(g) a3(N)
* 11. c6(p) c7-c6
* 12. d1(m) d7-c7
* 13. b5(c) c7-c8
* 14. d5(R) a6(M)
* 15. d8(P) d8-d7
* 16. c3(C) d7-c7
* 17. d4(r) a5(g)
* 18. b4-b3 c7-d7
* 19. b7(P) c8-c7
* 20. b8(n) c1-b1
* 21. d1-d2 c7-c8
* 22. a5-a6 d5-d4
* 23. a1(C) c3-c4
* 24. a6-b6 c8-d8
* 25. b6-b7 b1-c1
* 26. a4-b4 c1-b1
* 27. b3-c3 d7-c7
* 28. c2-b2 d8-d7
* 29. d2-d1 a3-a4
* 30. b5-b6 d3-c3
* 31. a8(r) c5-b5
* 32. b2-b3 a1-d1
* 33. b7-c7 d6(n)
* 34. b6-a6 b5-b4
* 35. d6-c6 d4-d3
* 36. c6-b6 b1-c1
* 37. c7-c6 a2-b2
* 38. b3-b2 c4-c5
* 39. a7-b7 d1-d2
* 40. b7-a7 b4-b5
* IllegalAction,a6-a2 a0 Wins 0.000000,1.000000
* Comment 0 0
0. 1721706123536
1. 1721706123536
2. 1721706123721
3. 1721706123881
4. 1721706124073
5. 1721706124229
6. 1721706124373
7. 1721706124529
8. 1721706124673
9. 1721706124833
10. 1721706125025
11. 1721706125181
12. 1721706125325
13. 1721706125485
14. 1721706125677
15. 1721706125833
16. 1721706125977
17. 1721706126133
18. 1721706126277
19. 1721706126437
20. 1721706126629
21. 1721706126785
22. 1721706126929
23. 1721706127085
24. 1721706127229
25. 1721706127389
26. 1721706127581
27. 1721706127737
28. 1721706127881
29. 1721706128041
30. 1721706128233
31. 1721706128389
32. 1721706128533
33. 1721706128689
34. 1721706128833
35. 1721706128993
36. 1721706129185
37. 1721706129341
38. 1721706129485
39. 1721706129641
40. 1721706129785
41. 1721706129945
42. 1721706130137
43. 1721706130293
44. 1721706130485
45. 1721706130645
46. 1721706130837
47. 1721706130993
48. 1721706131137
49. 1721706131301
50. 1721706131489
51. 1721706131645
52. 1721706131789
53. 1721706131949
54. 1721706132141
55. 1721706132297
56. 1721706132441
57. 1721706132597
58. 1721706132741
59. 1721706132905
60. 1721706133097
61. 1721706133249
62. 1721706133397
63. 1721706133549
64. 1721706133693
65. 1721706133857
66. 1721706134045
67. 1721706134201
68. 1721706134349
69. 1721706134505
70. 1721706134697
71. 1721706134853
72. 1721706135001
73. 1721706135153
74. 1721706135297
75. 1721706135457
76. 1721706135649
77. 1721706135805
78. 1721706135949
79. 1721706136105
80. 1721706136249
