INITIAL
* 2:2pm Jul 23, 2024
* a1 vs a0
* 1 2 2 2 2 2 5 1 2 2 2 2 2 5
* X X X X
* X X X X
* X X X X
* X X X X
* X X X X
* X X X X
* X X X X
* X X X X
* first 0
* time 900
* 1. c5(R) b3(p)
* 2. b6(G) b2(P)
* 3. c4(N) b3-b2
* 4. d5(P) d7(p)
* 5. b7(p) c8(m)
* 6. d6(P) a8(c)
* 7. a3(p) c3(n)
* 8. b5(M) a2(P)
* 9. c6(c) b2-b3
* 10. d8(k) a3-a2
* 11. d1(g) a2-b2
* 12. c2(C) b8(r)
* 13. a7(G) a6(p)
* 14. a5(m) c7(r)
* 15. a7-a8 c6-c4
* 16. a8-b8 b2-a2
* 17. d2(K) b1(N)
* 18. d6-d7 c7-d7
* 19. a1(M) d7-c7
* 20. d3(R) b7-a7
* 21. b8-b7 c7-d7
* 22. d4(n) c1(g)
* 23. c5-c4 b4(P)
* 24. d2-d1 d4-d5
* 25. b7-b8 b3-b2
* 26. d3-d2 b2-b3
* 27. b5-a5 c1-b1
* 28. b4-b5 b1-c1
* 29. b6-c6 a7-b7
* 30. b5-b6 d7-c7
* 31. b8-c8 b3-a3
* 32. c6-d6 a6-b6
* 33. d6-d7 d8-c8
* 34. c4-c3 a4(C)
* 35. c2-c7 d5-d4
* 36. d7-d6 d4-c4
* 37. a1-a2 b6-a6
* 38. c3-c4 c8-b8
* 39. c7-c8 a6-a7
* 40. a5-b5 c1-b1
* 41. d6-d7 b8-c8
* 42. b5-c5 c8-b8
* 43. c5-b5 a7-a8
* 44. b5-c5 b1-a1
* 45. a2-b2 b7-a7
* 46. c4-d4 a1-b1
* 47. c5-c4 b1-b2
* 48. d1-c1 b2-a2
* 49. c1-c2 a3-b3
* 50. a4-a5 b3-b4
* 51. c4-c3 b4-b3
* 52. c3-d3 b3-b4
* 53. c2-b2 a2-a1
* 54. b2-a2 b8-b7
* 55. a5-a6 b7-b6
* 56. d7-d8 b4-b3
* 57. d4-d5 b3-b2
* 58. d3-c3 b2-c2
* 59. d5-d4 b6-b7
* 60. d2-d3 a8-b8
* 61. c3-c4 b8-c8
* 62. a6-a1 b7-b6
* 63. c4-c3 c2-d2
* 64. a1-b1 b6-a6
* 65. d4-c4 a6-b6
* 66. b1-c1 d2-c2
* 67. d3-d4 c8-c7
* 68. c3-c2 a7-a6
* 69. d4-d3 b6-b5
* 70. c4-c5 a6-b6
* 71. c2-b2 b6-b7
* 72. b2-c2 b7-b8
* 73. d3-c3 c7-d7
* 74. c5-c4 b5-a5
* 75. a2-a3 d7-c7
* 76. a3-a4 c7-c8
* 77. d8-c8 b8-b7
* 78. c3-d3 a5-a6
* 79. a4-a5 a6-a5
* 80. c4-c3 a5-a6
* 81. c8-b8 a6-b6
* 82. c2-b2 b7-a7
* 83. d3-d2 b6-c6
* 84. d2-d3 a7-a8
* 85. b2-b1 c6-d6
* 86. b8-c8 d6-d5
* 87. c3-b3 d5-d6
* 88. b3-a3 a8-a7
* 89. c1-d1 a7-a6
* 90. d1-d6 a6-b6
* 91. d6-c6 b6-a6
* 92. b1-c1 a6-a7
* 93. c8-c7 a7-a6
* 94. a3-a4 a6-a7
* 95. c7-d7 a7-b7
* 96. c6-d6 b7-a7
* 97. a4-b4 a7-b7
* 98. d6-d5 b7-c7
* 99. b4-c4 c7-b7
* 100. d3-d2 b7-b6
* 101. c1-b1 b6-b5
* 102. d5-d4 b5-c5
* 103. d7-d6 c5-d5
* 104. d6-d5
* NoMove a1 Wins 1.000000,0.000000
* Comment 0 0
0. 1721714549866
1. 1721714549866
2. 1721714550061
3. 1721714550209
4. 1721714550361
5. 1721714550509
6. 1721714550657
7. 1721714550813
8. 1721714550961
9. 1721714551109
10. 1721714551261
11. 1721714551417
12. 1721714551561
13. 1721714551713
14. 1721714551861
15. 1721714552013
16. 1721714552161
17. 1721714552313
18. 1721714552461
19. 1721714552613
20. 1721714552761
21. 1721714552913
22. 1721714553065
23. 1721714553217
24. 1721714553365
25. 1721714553521
26. 1721714553665
27. 1721714553817
28. 1721714553965
29. 1721714554121
30. 1721714554265
31. 1721714554421
32. 1721714554569
33. 1721714554721
34. 1721714554869
35. 1721714555021
36. 1721714555169
37. 1721714555321
38. 1721714555469
39. 1721714555621
40. 1721714555769
41. 1721714555921
42. 1721714556069
43. 1721714556225
44. 1721714556373
45. 1721714556525
46. 1721714556673
47. 1721714556825
48. 1721714556977
49. 1721714557125
50. 1721714557277
51. 1721714557425
52. 1721714557573
53. 1721714557725
54. 1721714557877
55. 1721714558029
56. 1721714558177
57. 1721714558329
58. 1721714558477
59. 1721714558629
60. 1721714558777
61. 1721714558929
62. 1721714559077
63. 1721714559229
64. 1721714559377
65. 1721714559533
66. 1721714559681
67. 1721714559837
68. 1721714559981
69. 1721714560133
70. 1721714560281
71. 1721714560433
72. 1721714560581
73. 1721714560733
74. 1721714560881
75. 1721714561037
76. 1721714561185
77. 1721714561341
78. 1721714561533
79. 1721714561689
80. 1721714561833
81. 1721714561989
82. 1721714562141
83. 1721714562293
84. 1721714562485
85. 1721714562637
86. 1721714562785
87. 1721714562937
88. 1721714563089
89. 1721714563241
90. 1721714563389
91. 1721714563541
92. 1721714563689
93. 1721714563841
94. 1721714563989
95. 1721714564141
96. 1721714564293
97. 1721714564441
98. 1721714564593
99. 1721714564741
100. 1721714564889
101. 1721714565045
102. 1721714565193
103. 1721714565345
104. 1721714565493
105. 1721714565645
106. 1721714565793
107. 1721714565945
108. 1721714566093
109. 1721714566245
110. 1721714566397
111. 1721714566545
112. 1721714566693
113. 1721714566849
114. 1721714567001
115. 1721714567149
116. 1721714567301
117. 1721714567449
118. 1721714567597
119. 1721714567749
120. 1721714567897
121. 1721714568049
122. 1721714568197
123. 1721714568349
124. 1721714568501
125. 1721714568649
126. 1721714568805
127. 1721714568953
128. 1721714569101
129. 1721714569253
130. 1721714569405
131. 1721714569557
132. 1721714569701
133. 1721714569853
134. 1721714570005
135. 1721714570153
136. 1721714570301
137. 1721714570453
138. 1721714570605
139. 1721714570757
140. 1721714570905
141. 1721714571057
142. 1721714571205
143. 1721714571357
144. 1721714571505
145. 1721714571657
146. 1721714571805
147. 1721714571957
148. 1721714572109
149. 1721714572257
150. 1721714572413
151. 1721714572557
152. 1721714572709
153. 1721714572861
154. 1721714573009
155. 1721714573161
156. 1721714573309
157. 1721714573461
158. 1721714573613
159. 1721714573761
160. 1721714573913
161. 1721714574061
162. 1721714574213
163. 1721714574369
164. 1721714574513
165. 1721714574669
166. 1721714574813
167. 1721714574965
168. 1721714575113
169. 1721714575265
170. 1721714575417
171. 1721714575565
172. 1721714575717
173. 1721714575865
174. 1721714576017
175. 1721714576169
176. 1721714576317
177. 1721714576469
178. 1721714576617
179. 1721714576769
180. 1721714576917
181. 1721714577069
182. 1721714577221
183. 1721714577369
184. 1721714577521
185. 1721714577669
186. 1721714577821
187. 1721714577969
188. 1721714578125
189. 1721714578273
190. 1721714578421
191. 1721714578573
192. 1721714578721
193. 1721714578877
194. 1721714579025
195. 1721714579173
196. 1721714579329
197. 1721714579477
198. 1721714579625
199. 1721714579781
200. 1721714579925
201. 1721714580077
202. 1721714580225
203. 1721714580377
204. 1721714580529
205. 1721714580677
206. 1721714580833
207. 1721714580981
