INITIAL
* 0:6pm Jul 23, 2024
* a1 vs a0
* 1 2 2 2 2 2 5 1 2 2 2 2 2 5
* X X X X
* X X X X
* X X X X
* X X X X
* X X X X
* X X X X
* X X X X
* X X X X
* first 1
* time 900
* 1. c5(m) b3(P)
* 2. b6(p) b2(C)
* 3. c4(R) c8(g)
* 4. b5(P) c7(R)
* 5. d6(C) d2(m)
* 6. a5(r) b1(P)
* 7. b8(M) a1(g)
* 8. c2(n) c6(r)
* 9. c3(p) d3(p)
* 10. b7(p) b8-b7
* 11. a5-b5 a4(P)
* 12. c8-c7 b7-b8
* 13. d8(N) a3(c)
* 14. c2-b2 a6(k)
* 15. a8(G) c4-c3
* 16. d1(n) a4-a5
* 17. d4(p) d6-b6
* 18. d2-c2 c1(c)
* 19. b4(P) a5-a4
* 20. c6-d6 d7(G)
* 21. d1-d2 b4-c4
* 22. c7-d7 a2(K)
* 23. a7(N) b6-b7
* 24. a1-b1 c3-d3
* 25. d6-c6 b7-b6
* 26. b5-b4 b3-c3
* 27. c1-d1 d5(M)
* 28. d4-c4 d3-d2
* 29. b2-b3 a2-b2
* 30. c4-d4 a7-b7
* 31. c5-b5 b2-b1
* 32. c6-c5 a4-a5
* 33. d7-d6 d8-c8
* 34. c2-c3 a5-a6
* 35. a3-a4 b6-b4
* 36. b5-b4 d5-d4
* 37. c5-c6 a6-b6
* 38. d6-d7 c8-d8
* 39. c6-b6 d2-d1
* 40. d7-d6 b1-b2
* 41. b3-a3 d1-d2
* 42. a3-a2 d4-d3
* 43. b6-b5 b7-c7
* 44. d6-d5 b8-b7
* 45. a2-a1 d3-c3
* 46. b4-c4 c3-c4
* 47. b5-b6 d8-d7
* 48. d5-d4 c4-b4
* 49. d4-d5 d2-c2
* 50. d5-d6 c2-c3
* 51. d6-c6 c3-b3
* 52. a1-a2 b3-c3
* 53. a4-a3 b7-b8
* 54. a3-b3 b4-a4
* 55. b6-b7 a4-a5
* 56. c6-b6 b8-b7
* 57. a2-a1 c3-c2
* 58. a1-b1 d7-d6
* 59. b1-a1 a8-b8
* 60. b6-b5 c7-d7
* 61. b3-b4 c2-c3
* 62. b4-c4 b8-a8
* 63. b5-b6 a8-a7
* 64. c4-d4 a7-a8
* 65. b6-b5 d6-c6
* 66. d4-d5 c3-c4
* 67. d5-c5 b7-b6
* 68. a1-b1 b6-b7
* IllegalAction,c5-c8 a0 Wins 0.000000,1.000000
* Comment 0 0
0. 1721707602932
1. 1721707602932
2. 1721707603117
3. 1721707603277
4. 1721707603469
5. 1721707603629
6. 1721707603817
7. 1721707603977
8. 1721707604173
9. 1721707604329
10. 1721707604521
11. 1721707604677
12. 1721707604821
13. 1721707604981
14. 1721707605177
15. 1721707605333
16. 1721707605521
17. 1721707605681
18. 1721707605873
19. 1721707606029
20. 1721707606173
21. 1721707606329
22. 1721707606473
23. 1721707606637
24. 1721707606829
25. 1721707606981
26. 1721707607125
27. 1721707607281
28. 1721707607425
29. 1721707607581
30. 1721707607729
31. 1721707607881
32. 1721707608029
33. 1721707608185
34. 1721707608329
35. 1721707608485
36. 1721707608629
37. 1721707608785
38. 1721707608929
39. 1721707609085
40. 1721707609229
41. 1721707609385
42. 1721707609533
43. 1721707609685
44. 1721707609833
45. 1721707609985
46. 1721707610133
47. 1721707610285
48. 1721707610433
49. 1721707610589
50. 1721707610733
51. 1721707610889
52. 1721707611033
53. 1721707611189
54. 1721707611337
55. 1721707611489
56. 1721707611637
57. 1721707611789
58. 1721707611937
59. 1721707612093
60. 1721707612237
61. 1721707612389
62. 1721707612537
63. 1721707612689
64. 1721707612841
65. 1721707612989
66. 1721707613141
67. 1721707613293
68. 1721707613441
69. 1721707613597
70. 1721707613741
71. 1721707613897
72. 1721707614041
73. 1721707614193
74. 1721707614341
75. 1721707614493
76. 1721707614645
77. 1721707614793
78. 1721707614945
79. 1721707615093
80. 1721707615245
81. 1721707615393
82. 1721707615545
83. 1721707615697
84. 1721707615845
85. 1721707615997
86. 1721707616145
87. 1721707616297
88. 1721707616449
89. 1721707616597
90. 1721707616749
91. 1721707616897
92. 1721707617053
93. 1721707617197
94. 1721707617349
95. 1721707617497
96. 1721707617649
97. 1721707617801
98. 1721707617949
99. 1721707618097
100. 1721707618253
101. 1721707618397
102. 1721707618553
103. 1721707618701
104. 1721707618853
105. 1721707619001
106. 1721707619153
107. 1721707619301
108. 1721707619453
109. 1721707619601
110. 1721707619753
111. 1721707619901
112. 1721707620053
113. 1721707620201
114. 1721707620357
115. 1721707620501
116. 1721707620657
117. 1721707620801
118. 1721707620957
119. 1721707621105
120. 1721707621257
121. 1721707621405
122. 1721707621557
123. 1721707621705
124. 1721707621857
125. 1721707622005
126. 1721707622157
127. 1721707622305
128. 1721707622457
129. 1721707622605
130. 1721707622761
131. 1721707622905
132. 1721707623065
133. 1721707623257
134. 1721707623409
135. 1721707623557
136. 1721707623713
