INITIAL
* 1:14pm Jul 23, 2024
* a0 vs a1
* 1 2 2 2 2 2 5 1 2 2 2 2 2 5
* X X X X
* X X X X
* X X X X
* X X X X
* X X X X
* X X X X
* X X X X
* X X X X
* first 1
* time 900
* 1. a8(p) a3(r)
* 2. c3(C) a7(M)
* 3. b5(N) a6(p)
* 4. c8(R) b3(P)
* 5. d2(m) b8(k)
* 6. b4(P) d1(P)
* 7. c6(r) a1(G)
* 8. c1(g) a2(p)
* 9. c2(c) b6(n)
* 10. b8-c8 d6(C)
* 11. a5(N) c4(p)
* 12. c5(P) a5-a6
* 13. d8(M) c7(R)
* 14. b1(G) d3(n)
* 15. c1-b1 b5-b6
* 16. b1-c1 a1-b1
* 17. d5(P) a4(p)
* 18. c4-c5 a7-a8
* 19. c8-c7 d4(c)
* 20. c5-d5 a6-a7
* 21. d7(K) d7-c7
* 22. c6-b6 d6-d7
* 23. d4-c4 b1-a1
* 24. d5-c5 d8-c8
* 25. c1-b1 c7-c6
* 26. b7(m) c8-d8
* 27. a4-b4 d7-d6
* 28. d3-d4 d8-d7
* 29. b1-c1 d7-c7
* 30. d4-d5 c3-d3
* 31. d5-d4 c7-c8
* 32. d4-d5 b2(g)
* 33. b4-b3 d3-c3
* 34. b7-b8 a7-b7
* 35. c1-b1 d6-b6
* 36. d5-d4 b7-c7
* 37. b3-b4 a8-a7
* 38. d2-d3 b6-a6
* 39. c2-d2 c8-d8
* 40. d2-c2 a7-b7
* 41. b8-c8 a1-a2
* 42. d4-d5 a6-b6
* 43. d3-d2 d8-d7
* 44. a3-b3 c3-d3
* 45. b1-a1 d1-c1
* 46. a1-b1 b6-a6
* 47. b3-c3 a6-a5
* 48. b2-a2 b7-b6
* 49. b1-c1 a5-a6
* 50. c1-b1 b6-b7
* 51. b1-c1 a6-a7
* 52. c1-b1 b7-b8
* 53. c8-c7 d3-d4
* 54. b4-a4 b8-a8
* 55. d2-d3 c6-d6
* 56. c5-b5 a7-a6
* 57. d3-d4 a6-a5
* 58. a2-a1 a5-a6
* 59. c7-c8 d7-c7
* 60. b5-b6 d6-c6
* 61. b6-c6 a6-a7
* 62. c8-b8 a8-b8
* 63. b1-b2 a7-b7
* 64. c4-c7 b8-a8
* 65. b2-b3 b7-a7
* 66. c6-b6 a7-a6
* 67. d5-c5 a8-a7
* 68. c2-d2 a6-a5
* 69. c5-c4 a7-a8
* 70. c7-d7 a5-b5
* 71. d2-c2 a8-a7
* 72. d7-d6 b5-a5
* 73. d6-d7 a5-a1
* 74. b3-a3 a7-a6
* 75. d4-d5 a1-b1
* 76. c2-c1 b1-a1
* 77. c3-c2 a6-a5
* 78. a4-b4 a1-b1
* 79. d5-d4 a5-a4
* 80. c2-b2 a4-a5
* 81. d7-c7 a5-a4
* 82. c7-b7 a4-b4
* 83. c4-c5 b1-a1
* 84. a3-a2 b4-c4
* 85. b7-a7 c4-b4
* 86. b2-c2 b4-c4
* 87. c5-c6 a1-a7
* 88. c2-d2 a7-a8
* 89. c1-d1 a8-b8
* 90. b6-b7 b8-c8
* 91. c6-b6 c4-d4
* 92. b7-b8 d4-d3
* 93. b8-b7 c8-c7
* 94. d1-d3 c7-c8
* 95. b7-b8 c8-c7
* 96. b8-c8 c7-b7
* 97. b6-b7
* NoMove a0 Wins 1.000000,0.000000
* Comment 0 0
0. 1721711664330
1. 1721711664330
2. 1721711664517
3. 1721711664673
4. 1721711664817
5. 1721711664977
6. 1721711665169
7. 1721711665325
8. 1721711665469
9. 1721711665629
10. 1721711665821
11. 1721711665977
12. 1721711666121
13. 1721711666277
14. 1721711666421
15. 1721711666577
16. 1721711666721
17. 1721711666877
18. 1721711667021
19. 1721711667181
20. 1721711667377
21. 1721711667529
22. 1721711667673
23. 1721711667829
24. 1721711667977
25. 1721711668137
26. 1721711668329
27. 1721711668481
28. 1721711668625
29. 1721711668785
30. 1721711668977
31. 1721711669133
32. 1721711669277
33. 1721711669433
34. 1721711669581
35. 1721711669737
36. 1721711669929
37. 1721711670089
38. 1721711670281
39. 1721711670437
40. 1721711670581
41. 1721711670741
42. 1721711670933
43. 1721711671093
44. 1721711671289
45. 1721711671441
46. 1721711671585
47. 1721711671741
48. 1721711671885
49. 1721711672041
50. 1721711672185
51. 1721711672341
52. 1721711672485
53. 1721711672641
54. 1721711672789
55. 1721711672945
56. 1721711673137
57. 1721711673293
58. 1721711673437
59. 1721711673593
60. 1721711673741
61. 1721711673893
62. 1721711674041
63. 1721711674197
64. 1721711674341
65. 1721711674497
66. 1721711674641
67. 1721711674797
68. 1721711674941
69. 1721711675097
70. 1721711675245
71. 1721711675401
72. 1721711675593
73. 1721711675749
74. 1721711675893
75. 1721711676049
76. 1721711676197
77. 1721711676349
78. 1721711676497
79. 1721711676649
80. 1721711676797
81. 1721711676953
82. 1721711677101
83. 1721711677253
84. 1721711677401
85. 1721711677557
86. 1721711677749
87. 1721711677909
88. 1721711678101
89. 1721711678257
90. 1721711678405
91. 1721711678561
92. 1721711678757
93. 1721711678905
94. 1721711679057
95. 1721711679209
96. 1721711679353
97. 1721711679513
98. 1721711679705
99. 1721711679861
100. 1721711680005
101. 1721711680157
102. 1721711680309
103. 1721711680461
104. 1721711680605
105. 1721711680761
106. 1721711680909
107. 1721711681061
108. 1721711681209
109. 1721711681361
110. 1721711681509
111. 1721711681661
112. 1721711681813
113. 1721711681961
114. 1721711682109
115. 1721711682261
116. 1721711682413
117. 1721711682565
118. 1721711682713
119. 1721711682865
120. 1721711683013
121. 1721711683169
122. 1721711683313
123. 1721711683465
124. 1721711683613
125. 1721711683769
126. 1721711683921
127. 1721711684065
128. 1721711684217
129. 1721711684369
130. 1721711684517
131. 1721711684669
132. 1721711684817
133. 1721711684969
134. 1721711685121
135. 1721711685269
136. 1721711685421
137. 1721711685569
138. 1721711685721
139. 1721711685873
140. 1721711686021
141. 1721711686173
142. 1721711686321
143. 1721711686477
144. 1721711686625
145. 1721711686773
146. 1721711686925
147. 1721711687073
148. 1721711687225
149. 1721711687373
150. 1721711687525
151. 1721711687677
152. 1721711687825
153. 1721711687977
154. 1721711688129
155. 1721711688277
156. 1721711688429
157. 1721711688581
158. 1721711688733
159. 1721711688877
160. 1721711689029
161. 1721711689181
162. 1721711689329
163. 1721711689481
164. 1721711689633
165. 1721711689781
166. 1721711689933
167. 1721711690085
168. 1721711690237
169. 1721711690385
170. 1721711690533
171. 1721711690685
172. 1721711690833
173. 1721711690989
174. 1721711691133
175. 1721711691285
176. 1721711691437
177. 1721711691585
178. 1721711691737
179. 1721711691885
180. 1721711692037
181. 1721711692185
182. 1721711692337
183. 1721711692489
184. 1721711692637
185. 1721711692793
186. 1721711692937
187. 1721711693089
188. 1721711693241
189. 1721711693389
190. 1721711693541
191. 1721711693689
192. 1721711693841
193. 1721711693989
