INITIAL
* 0:7pm Jul 23, 2024
* a0 vs a1
* 1 2 2 2 2 2 5 1 2 2 2 2 2 5
* X X X X
* X X X X
* X X X X
* X X X X
* X X X X
* X X X X
* X X X X
* X X X X
* first 1
* time 900
* 1. a8(p) a3(P)
* 2. c3(N) a7(p)
* 3. b5(G) b7(P)
* 4. d7(R) a2(r)
* 5. a2-a3 c4(C)
* 6. b6(c) c7(m)
* 7. c1(n) b8(g)
* 8. c5(c) d6(G)
* 9. b4(M) c2(n)
* 10. c5-c3 b1(p)
* 11. a4(p) d1(R)
* 12. b8-b7 b2(P)
* 13. a3-a2 b2-b1
* 14. a5(p) a6(M)
* 15. a2-a3 b1-b2
* 16. b6-b4 a6-a7
* 17. b7-b8 b3(P)
* 18. d3(g) a1(r)
* 19. b8-b7 b2-a2
* 20. c2-b2 d2(C)
* 21. c6(P) c6-c5
* 22. b2-c2 c5-c6
* 23. b7-b8 a7-b7
* 24. c2-b2 c8(K)
* 25. a1-b1 c8-b8
* 26. b1-a1 c6-c5
* 27. c3-c5 b7-a7
* 28. a5-a6 d8(m)
* 29. d5(k) b5-c5
* 30. c7-d7 c4-a4
* 31. d8-c8 a4-a5
* 32. a3-a4 c5-b5
* 33. a8-b8 a7-a8
* 34. d7-d8 a8-a7
* 35. d4(N) d1-c1
* 36. b2-c2 d2-d1
* 37. d3-d2 c1-c2
* 38. c8-c7 a2-a3
* 39. d5-c5 a3-a2
* 40. c5-c6 d4-c4
* 41. a1-a2 a7-a6
* 42. d2-c2 d6-d5
* 43. a2-b2 b5-c5
* 44. d8-d7 c4-d4
* 45. b2-b1 d5-d6
* 46. c7-b7 b3-b2
* 47. d7-d8 d6-d5
* 48. c6-c5 d4-d3
* 49. b4-b5 d5-d6
* 50. b5-b6 d3-d2
* 51. c5-c4 d6-d5
* 52. b6-c6 b2-b3
* 53. c4-c5 d5-d6
* 54. a4-a3 b3-b4
* 55. c6-b6 b4-c4
* 56. b7-c7 d6-d7
* 57. c5-b5 c4-d4
* 58. c2-d2 a6-b6
* 59. d2-c2 d1-d2
* 60. b8-a8 d7-d8
* 61. b1-a1 d4-d3
* 62. b5-c5 b6-b7
* 63. a3-a4 d2-d1
* 64. a4-b4 d8-c8
* 65. c5-c6 c8-b8
* 66. a1-b1 d3-d4
* 67. c7-c8 b7-a7
* 68. b4-c4 d1-d2
* 69. b1-c1 d4-d3
* 70. c2-b2 d3-c3
* 71. c6-b6 c3-b3
* 72. c4-c3 a7-a8
* 73. c3-c2 b3-a3
* 74. b2-b1 d2-d1
* 75. b6-a6 b8-c8
* 76. c2-b2 a3-a2
* 77. a6-a5
* IllegalAction,a2-a5 a0 Wins 1.000000,0.000000
* Comment 0 0
0. 1721707631666
1. 1721707631666
2. 1721707631857
3. 1721707632009
4. 1721707632157
5. 1721707632309
6. 1721707632457
7. 1721707632609
8. 1721707632753
9. 1721707632913
10. 1721707633105
11. 1721707633261
12. 1721707633405
13. 1721707633561
14. 1721707633705
15. 1721707633869
16. 1721707634057
17. 1721707634217
18. 1721707634413
19. 1721707634565
20. 1721707634709
21. 1721707634865
22. 1721707635009
23. 1721707635165
24. 1721707635309
25. 1721707635469
26. 1721707635661
27. 1721707635817
28. 1721707635961
29. 1721707636117
30. 1721707636261
31. 1721707636421
32. 1721707636613
33. 1721707636769
34. 1721707636965
35. 1721707637125
36. 1721707637313
37. 1721707637473
38. 1721707637665
39. 1721707637821
40. 1721707638013
41. 1721707638173
42. 1721707638365
43. 1721707638525
44. 1721707638713
45. 1721707638873
46. 1721707639065
47. 1721707639225
48. 1721707639417
49. 1721707639577
50. 1721707639765
51. 1721707639929
52. 1721707640117
53. 1721707640277
54. 1721707640469
55. 1721707640629
56. 1721707640817
57. 1721707640981
58. 1721707641169
59. 1721707641329
60. 1721707641525
61. 1721707641681
62. 1721707641869
63. 1721707642037
64. 1721707642221
65. 1721707642381
66. 1721707642573
67. 1721707642733
68. 1721707642921
69. 1721707643085
70. 1721707643273
71. 1721707643437
72. 1721707643625
73. 1721707643785
74. 1721707643977
75. 1721707644137
76. 1721707644325
77. 1721707644489
78. 1721707644677
79. 1721707644837
80. 1721707645029
81. 1721707645189
82. 1721707645377
83. 1721707645541
84. 1721707645733
85. 1721707645889
86. 1721707646081
87. 1721707646241
88. 1721707646429
89. 1721707646593
90. 1721707646781
91. 1721707646945
92. 1721707647133
93. 1721707647293
94. 1721707647485
95. 1721707647645
96. 1721707647837
97. 1721707647997
98. 1721707648185
99. 1721707648349
100. 1721707648541
101. 1721707648697
102. 1721707648885
103. 1721707649049
104. 1721707649237
105. 1721707649401
106. 1721707649589
107. 1721707649749
108. 1721707649941
109. 1721707650101
110. 1721707650293
111. 1721707650453
112. 1721707650641
113. 1721707650801
114. 1721707650993
115. 1721707651153
116. 1721707651341
117. 1721707651505
118. 1721707651693
119. 1721707651857
120. 1721707652045
121. 1721707652205
122. 1721707652397
123. 1721707652557
124. 1721707652745
125. 1721707652909
126. 1721707653097
127. 1721707653257
128. 1721707653449
129. 1721707653613
130. 1721707653797
131. 1721707653961
132. 1721707654149
133. 1721707654313
134. 1721707654501
135. 1721707654661
136. 1721707654853
137. 1721707655013
138. 1721707655201
139. 1721707655365
140. 1721707655553
141. 1721707655713
142. 1721707655905
143. 1721707656065
144. 1721707656253
145. 1721707656417
146. 1721707656605
147. 1721707656769
148. 1721707656957
149. 1721707657117
150. 1721707657305
151. 1721707657469
152. 1721707657657
153. 1721707657821
