INITIAL
* 11:48am Jul 23, 2024
* a1 vs a0
* 1 2 2 2 2 2 5 1 2 2 2 2 2 5
* X X X X
* X X X X
* X X X X
* X X X X
* X X X X
* X X X X
* X X X X
* X X X X
* first 0
* time 900
* 1. c5(C) b3(K)
* 2. b6(N) b2(M)
* 3. c4(k) b4(p)
* 4. d3(P) d7(R)
* 5. c2(M) c8(m)
* 6. b7(P) a1(m)
* 7. c3(n) a2(c)
* 8. c1(G) b5(r)
* 9. a5(g) d1(P)
* 10. a6(p) b5-b6
* 11. d6(C) a4(p)
* 12. c6(p) c7(n)
* 13. c5-b5 d2(P)
* 14. a7(G) c6-c5
* 15. b3-c3 c7-b7
* 16. a8(R) a3(r)
* 17. a7-b7 a2-c2
* 18. b1(p) b6-c6
* 19. c3-b3 a6-b6
* 20. d8(N) a3-a2
* 21. b7-c7 a5-b5
* 22. c7-b7 c4-c3
* 23. d5(g) a4-a3
* 24. b2-c2 b8(P)
* 25. d6-b6 a3-b3
* 26. b7-c7 b5-b6
* 27. c7-c6 b4-a4
* 28. c2-b2 b6-b7
* 29. b2-a2 a4-a5
* 30. a2-b2 a5-a6
* 31. d7-d6 b7-a7
* 32. b2-b1 a1-a2
* 33. d4(c) a6-b6
* 34. d8-d7 d5-d6
* 35. d7-d8 a7-a6
* 36. d8-d7 c8-c7
* 37. a8-a7 d4-d7
* 38. c6-d6 b6-c6
* 39. d3-d4 c7-b7
* 40. d6-c6 b7-b8
* 41. b1-b2 c5-d5
* 42. a7-a8 d7-c7
* 43. a8-a7 a2-b2
* 44. d4-d5 b3-a3
* 45. a7-b7 a3-a2
* 46. b7-a7 c3-d3
* 47. a7-a8 a6-b6
* 48. c6-c7 b2-b3
* IllegalAction,d5-d3 a0 Wins 0.000000,1.000000
* Comment 0 0
0. 1721706489474
1. 1721706489474
2. 1721706489665
3. 1721706489817
4. 1721706489965
5. 1721706490117
6. 1721706490265
7. 1721706490417
8. 1721706490569
9. 1721706490717
10. 1721706490869
11. 1721706491025
12. 1721706491173
13. 1721706491321
14. 1721706491469
15. 1721706491621
16. 1721706491769
17. 1721706491921
18. 1721706492069
19. 1721706492221
20. 1721706492373
21. 1721706492521
22. 1721706492673
23. 1721706492829
24. 1721706492977
25. 1721706493125
26. 1721706493273
27. 1721706493425
28. 1721706493573
29. 1721706493725
30. 1721706493873
31. 1721706494025
32. 1721706494177
33. 1721706494325
34. 1721706494477
35. 1721706494625
36. 1721706494777
37. 1721706494929
38. 1721706495077
39. 1721706495229
40. 1721706495381
41. 1721706495529
42. 1721706495681
43. 1721706495829
44. 1721706495981
45. 1721706496129
46. 1721706496281
47. 1721706496433
48. 1721706496581
49. 1721706496733
50. 1721706496885
51. 1721706497033
52. 1721706497185
53. 1721706497337
54. 1721706497485
55. 1721706497633
56. 1721706497785
57. 1721706497933
58. 1721706498085
59. 1721706498237
60. 1721706498385
61. 1721706498537
62. 1721706498689
63. 1721706498837
64. 1721706498989
65. 1721706499137
66. 1721706499289
67. 1721706499437
68. 1721706499589
69. 1721706499737
70. 1721706499889
71. 1721706500037
72. 1721706500193
73. 1721706500341
74. 1721706500493
75. 1721706500641
76. 1721706500793
77. 1721706500941
78. 1721706501093
79. 1721706501241
80. 1721706501393
81. 1721706501541
82. 1721706501693
83. 1721706501845
84. 1721706501997
85. 1721706502141
86. 1721706502297
87. 1721706502441
88. 1721706502597
89. 1721706502741
90. 1721706502897
91. 1721706503045
92. 1721706503197
93. 1721706503345
94. 1721706503497
95. 1721706503645
96. 1721706503801
