INITIAL
* 1:15pm Jul 23, 2024
* a1 vs a0
* 1 2 2 2 2 2 5 1 2 2 2 2 2 5
* X X X X
* X X X X
* X X X X
* X X X X
* X X X X
* X X X X
* X X X X
* X X X X
* first 0
* time 900
* 1. c5(R) b3(g)
* 2. b6(p) b2(P)
* 3. c4(c) b3-b2
* 4. c7(p) d7(k)
* 5. a6(N) d1(C)
* 6. b7(G) a1(n)
* 7. d8(P) b8(C)
* 8. b1(P) b4(c)
* 9. c6(r) a4(p)
* 10. a7(m) b5(p)
* 11. d2(g) a3(M)
* 12. c1(N) d2-d1
* 13. c2(M) c3(P)
* 14. d3(R) b2-b1
* 15. c5-c4 c6-c5
* 16. c3-b3 b6-c6
* 17. c4-b4 a2(P)
* 18. b4-a4 a7-a6
* 19. b3-b2 b1-c1
* 20. a4-b4 c1-c2
* 21. c8(n) c5-c4
* 22. a8(G) c4-b4
* 23. b7-c7 c6-c5
* 24. b8-b7 a6-a7
* 25. d5(K) a1-b1
* 26. d3-c3 a7-a6
* 27. a2-a1 c5-c6
* 28. c3-c4 d1-c1
* 29. a8-a7 b5-b6
* 30. a3-a2 b1-a1
* 31. d4(m) b6-b5
* 32. b2-b3 a1-b1
* 33. a2-a3 b1-b2
* 34. c7-c8 c2-c3
* 35. c4-c5 c6-b6
* 36. a3-a2 b4-c4
* 37. c5-c6 b2-b1
* 38. a2-a3 b1-a1
* 39. c8-c7 b5-c5
* 40. a7-a6 c4-b4
* 41. b7-a7 b4-b5
* 42. d6(r) c3-c4
* 43. c7-b7 b5-b4
* 44. c6-d6 c4-c3
* 45. d5-d4 a1-a2
* 46. a7-a8 d7-d6
* 47. d4-d5 d6-d5
* IllegalAction,d8-d5 a0 Wins 0.000000,1.000000
* Comment 0 0
0. 1721711701859
1. 1721711701859
2. 1721711702045
3. 1721711702205
4. 1721711702401
5. 1721711702553
6. 1721711702701
7. 1721711702853
8. 1721711702997
9. 1721711703153
10. 1721711703297
11. 1721711703457
12. 1721711703653
13. 1721711703809
14. 1721711704001
15. 1721711704157
16. 1721711704301
17. 1721711704461
18. 1721711704653
19. 1721711704813
20. 1721711705005
21. 1721711705161
22. 1721711705353
23. 1721711705509
24. 1721711705653
25. 1721711705809
26. 1721711705953
27. 1721711706113
28. 1721711706305
29. 1721711706461
30. 1721711706605
31. 1721711706761
32. 1721711706905
33. 1721711707065
34. 1721711707257
35. 1721711707413
36. 1721711707557
37. 1721711707717
38. 1721711707909
39. 1721711708065
40. 1721711708209
41. 1721711708365
42. 1721711708509
43. 1721711708669
44. 1721711708861
45. 1721711709017
46. 1721711709161
47. 1721711709321
48. 1721711709513
49. 1721711709669
50. 1721711709813
51. 1721711709969
52. 1721711710113
53. 1721711710277
54. 1721711710469
55. 1721711710621
56. 1721711710765
57. 1721711710921
58. 1721711711065
59. 1721711711225
60. 1721711711417
61. 1721711711573
62. 1721711711717
63. 1721711711877
64. 1721711712069
65. 1721711712225
66. 1721711712369
67. 1721711712529
68. 1721711712721
69. 1721711712877
70. 1721711713025
71. 1721711713177
72. 1721711713321
73. 1721711713481
74. 1721711713673
75. 1721711713829
76. 1721711713973
77. 1721711714133
78. 1721711714325
79. 1721711714481
80. 1721711714625
81. 1721711714785
82. 1721711714977
83. 1721711715133
84. 1721711715277
85. 1721711715441
86. 1721711715633
87. 1721711715785
88. 1721711715929
89. 1721711716085
90. 1721711716229
91. 1721711716389
92. 1721711716581
93. 1721711716737
94. 1721711716881
