INITIAL
* 11:45am Jul 23, 2024
* a1 vs a0
* 1 2 2 2 2 2 5 1 2 2 2 2 2 5
* X X X X
* X X X X
* X X X X
* X X X X
* X X X X
* X X X X
* X X X X
* X X X X
* first 1
* time 900
* 1. c5(r) b3(m)
* 2. b6(G) b2(C)
* 3. c4(P) c8(r)
* 4. d5(g) c3(g)
* 5. c7(R) d1(P)
* 6. c1(m) c7-c8
* 7. a3(n) b7(M)
* 8. a1(N) c6(C)
* 9. a4(N) b7-c7
* 10. a2(p) b4(M)
* 11. a6(n) a5(p)
* 12. d8(c) b5(K)
* 13. b1(p) b8(P)
* 14. d6(c) b8-b7
* 15. a3-a4 c8-d8
* 16. b3-b2 b4-b3
* 17. a7(p) a1-a2
* 18. a4-b4 d7(k)
* 19. d4(P) b5-c5
* 20. b4-c4 c7-c8
* 21. a5-a4 d3(R)
* 22. a4-a3 c5-c4
* 23. a7-b7 b6-b7
* 24. a6-b6 b7-b6
* 25. c3-b3 c2(G)
* 26. c1-d1 c2-c1
* 27. d6-d4 b6-b5
* 28. d7-d6 b5-b6
* 29. a3-a4 a2-a1
* 30. a8(p) c8-c7
* 31. a4-a5 c1-b1
* 32. d2(P) b6-b7
* 33. d1-d2 a1-a2
* 34. d2-c2 c6-c5
* 35. b2-a2 c5-c2
* 36. a2-b2 c4-b4
* 37. a5-a6 b1-b2
* IllegalAction,d4-d1 a0 Wins 0.000000,1.000000
* Comment 0 0
0. 1721706349319
1. 1721706349319
2. 1721706349505
3. 1721706349661
4. 1721706349805
5. 1721706349961
6. 1721706350105
7. 1721706350261
8. 1721706350409
9. 1721706350565
10. 1721706350757
11. 1721706350913
12. 1721706351057
13. 1721706351213
14. 1721706351361
15. 1721706351517
16. 1721706351661
17. 1721706351817
18. 1721706351961
19. 1721706352117
20. 1721706352261
21. 1721706352417
22. 1721706352561
23. 1721706352717
24. 1721706352861
25. 1721706353017
26. 1721706353165
27. 1721706353321
28. 1721706353469
29. 1721706353621
30. 1721706353765
31. 1721706353921
32. 1721706354065
33. 1721706354221
34. 1721706354365
35. 1721706354521
36. 1721706354669
37. 1721706354821
38. 1721706354969
39. 1721706355121
40. 1721706355269
41. 1721706355425
42. 1721706355569
43. 1721706355725
44. 1721706355869
45. 1721706356025
46. 1721706356169
47. 1721706356325
48. 1721706356473
49. 1721706356625
50. 1721706356773
51. 1721706356925
52. 1721706357073
53. 1721706357225
54. 1721706357373
55. 1721706357533
56. 1721706357725
57. 1721706357877
58. 1721706358025
59. 1721706358177
60. 1721706358325
61. 1721706358481
62. 1721706358625
63. 1721706358781
64. 1721706358925
65. 1721706359081
66. 1721706359229
67. 1721706359381
68. 1721706359529
69. 1721706359681
70. 1721706359829
71. 1721706359985
72. 1721706360129
73. 1721706360281
74. 1721706360429
