INITIAL
* 11:47am Jul 23, 2024
* a0 vs a1
* 1 2 2 2 2 2 5 1 2 2 2 2 2 5
* X X X X
* X X X X
* X X X X
* X X X X
* X X X X
* X X X X
* X X X X
* X X X X
* first 1
* time 900
* 1. a8(n) a3(N)
* 2. c3(K) a7(G)
* 3. b5(r) a6(M)
* 4. c8(P) b2(P)
* 5. d2(k) b1(P)
* 6. d1(M) d5(g)
* 7. c2(r) a2(m)
* 8. b4(p) c7(G)
* 9. c1(N) c6(R)
* 10. b7(p) a1(c)
* 11. a1-c1 a7-a8
* 12. c1-c3 b8(C)
* 13. a2-b2 d7(m)
* 14. d2-d1 a4(p)
* 15. d1-d2 c7-d7
* 16. b7-c7 d4(p)
* 17. a5(R) b3(c)
* 18. c3-a3 c8-c7
* 19. b3-b1 c7-c8
* 20. c2-c3 c5(g)
* 21. c3-b3 d3(C)
* 22. b5-a5 b8-b7
* 23. d2-d1 c4(P)
* 24. c5-c6 b7-a7
* 25. b3-c3 d3-d2
* 26. b2-a2 c8-b8
* 27. c3-c2 c4-d4
* 28. b1-a1 d2-d3
* 29. b6(P) b6-b5
* 30. d1-d2 d4-c4
* 31. b4-b3 b5-b6
* 32. a3-d3 d7-c7
* 33. a5-b5 d8(p)
* 34. d8-c8 a7-a4
* 35. b3-b4 a6-a7
* 36. b4-b3 c7-c6
* 37. a1-b1 c4-c5
* 38. c8-d8 a4-b4
* 39. b5-b6 a7-a6
* 40. b6-b7 c5-c4
* 41. b1-a1 c4-d4
* 42. d6(n) a6-b6
* 43. a1-b1 b6-b7
* 44. d8-d7 b7-b6
* 45. a2-a1 c6-c5
* 46. b3-b2 b4-b3
* 47. c2-c1 b8-c8
* 48. b2-a2 d4-c4
* 49. c1-d1 b6-c6
* 50. d3-c3 c6-d6
* 51. d2-c2 c8-c7
* 52. c2-c1 d6-c6
* 53. d1-d2 c5-d5
* 54. d2-c2 c6-d6
* 55. c3-c7 b3-b2
* 56. a2-a3 c4-d4
* 57. a3-b3 d6-c6
* 58. b3-b4 b2-b3
* 59. c2-b2 b3-b1
* 60. b2-b1 c6-c7
* 61. b4-b3 d5-c5
* 62. b3-b2 c7-c6
* 63. c1-d1 c5-d5
* 64. d7-c7 a8-b8
* 65. c7-c8 d5-d6
* 66. d1-d2 d4-d3
* 67. d2-c2 d3-d4
* 68. b2-b3 c6-c7
* 69. b1-b2 c7-c6
* 70. b3-b4 c6-c5
* 71. c8-d8 b8-c8
* 72. b2-a2 d4-d3
* 73. b4-b3 c5-b5
* 74. c2-d2 d6-d7
* 75. a2-b2 b5-b4
* 76. b3-c3 c8-c7
* 77. c3-c2 d3-c3
* 78. b2-b1 b4-c4
* 79. d2-d3 c3-d3
* 80. c2-c1 c4-c5
* 81. c1-c2 c7-c6
* 82. a1-a2 c6-c7
* 83. b1-b2 c7-b7
* 84. b2-b3 d7-d6
* 85. a2-b2 c5-c6
* 86. b3-c3 b7-b6
* 87. c2-d2 d3-d2
* 88. b2-b3 d2-d1
* 89. b3-b2 d1-c1
* 90. d8-d7 c1-b1
* 91. b2-c2 d6-d7
* 92. c2-b2 b1-c1
* 93. c3-b3 c6-c5
* 94. b2-a2 d7-c7
* 95. a2-a3 c7-c8
* 96. b3-b4 c8-c7
* 97. b4-b5 c1-c2
* 98. a3-b3 c7-c8
* 99. b3-a3 c2-c1
* 100. b5-b4 c1-c2
* 101. b4-b5 b6-b5
* 102. a3-b3 c2-c3
* 103. b3-c3 b5-b4
* 104. c3-d3 b4-c4
* 105. d3-d2 c8-c7
* 106. d2-c2 c7-c6
* 107. c2-c3 c4-d4
* 108. c3-d3 d4-d5
* 109. d3-c3 d5-d6
* 110. c3-b3 d6-d5
* 111. b3-a3 c6-d6
* 112. a3-a2 c5-c4
* 113. a2-b2 d6-c6
* 114. b2-a2 c4-b4
* 115. a2-a1 b4-a4
* 116. a1-b1 c6-b6
* 117. b1-a1 b6-a6
* 118. a1-b1 d5-c5
* 119. b1-b2 a4-a3
* 120. b2-b1 c5-c4
* 121. b1-b2 a3-b3
* 122. b2-b3 a6-a5
* 123. b3-b2 c4-c5
* 124. b2-b3 a5-b5
* 125. b3-b4 b5-b4
* NoMove a1 Wins 0.000000,1.000000
* Comment 0 0
0. 1721706441326
1. 1721706441326
2. 1721706441513
3. 1721706441669
4. 1721706441813
5. 1721706441969
6. 1721706442113
7. 1721706442269
8. 1721706442417
9. 1721706442569
10. 1721706442721
11. 1721706442877
12. 1721706443065
13. 1721706443225
14. 1721706443421
15. 1721706443573
16. 1721706443721
17. 1721706443873
18. 1721706444017
19. 1721706444173
20. 1721706444317
21. 1721706444477
22. 1721706444673
23. 1721706444825
24. 1721706444969
25. 1721706445125
26. 1721706445273
27. 1721706445429
28. 1721706445625
29. 1721706445777
30. 1721706445925
31. 1721706446081
32. 1721706446273
33. 1721706446429
34. 1721706446573
35. 1721706446729
36. 1721706446877
37. 1721706447037
38. 1721706447229
39. 1721706447381
40. 1721706447529
41. 1721706447681
42. 1721706447829
43. 1721706447985
44. 1721706448129
45. 1721706448285
46. 1721706448429
47. 1721706448589
48. 1721706448781
49. 1721706448937
50. 1721706449081
51. 1721706449241
52. 1721706449429
53. 1721706449589
54. 1721706449781
55. 1721706449937
56. 1721706450081
57. 1721706450241
58. 1721706450433
59. 1721706450589
60. 1721706450733
61. 1721706450889
62. 1721706451037
63. 1721706451193
64. 1721706451385
65. 1721706451541
66. 1721706451689
67. 1721706451841
68. 1721706451989
69. 1721706452145
70. 1721706452337
71. 1721706452493
72. 1721706452637
73. 1721706452801
74. 1721706452993
75. 1721706453145
76. 1721706453293
77. 1721706453445
78. 1721706453593
79. 1721706453749
80. 1721706453941
81. 1721706454097
82. 1721706454241
83. 1721706454397
84. 1721706454541
85. 1721706454701
86. 1721706454893
87. 1721706455049
88. 1721706455197
89. 1721706455357
90. 1721706455549
91. 1721706455705
92. 1721706455901
93. 1721706456053
94. 1721706456201
95. 1721706456357
96. 1721706456549
97. 1721706456705
98. 1721706456897
99. 1721706457057
100. 1721706457249
101. 1721706457409
102. 1721706457601
103. 1721706457761
104. 1721706457949
105. 1721706458109
106. 1721706458301
107. 1721706458461
108. 1721706458653
109. 1721706458809
110. 1721706458953
111. 1721706459109
112. 1721706459253
113. 1721706459413
114. 1721706459605
115. 1721706459765
116. 1721706459957
117. 1721706460113
118. 1721706460305
119. 1721706460465
120. 1721706460657
121. 1721706460813
122. 1721706460957
123. 1721706461117
124. 1721706461305
125. 1721706461465
126. 1721706461657
127. 1721706461817
128. 1721706462009
129. 1721706462169
130. 1721706462361
131. 1721706462517
132. 1721706462709
133. 1721706462869
134. 1721706463061
135. 1721706463225
136. 1721706463417
137. 1721706463573
138. 1721706463765
139. 1721706463921
140. 1721706464113
141. 1721706464273
142. 1721706464465
143. 1721706464625
144. 1721706464817
145. 1721706464973
146. 1721706465165
147. 1721706465325
148. 1721706465517
149. 1721706465677
150. 1721706465865
151. 1721706466025
152. 1721706466217
153. 1721706466377
154. 1721706466569
155. 1721706466729
156. 1721706466925
157. 1721706467081
158. 1721706467269
159. 1721706467429
160. 1721706467621
161. 1721706467781
162. 1721706467973
163. 1721706468133
164. 1721706468325
165. 1721706468481
166. 1721706468625
167. 1721706468781
168. 1721706468929
169. 1721706469085
170. 1721706469277
171. 1721706469433
172. 1721706469577
173. 1721706469737
174. 1721706469929
175. 1721706470085
176. 1721706470229
177. 1721706470385
178. 1721706470529
179. 1721706470693
180. 1721706470885
181. 1721706471037
182. 1721706471181
183. 1721706471341
184. 1721706471533
185. 1721706471693
186. 1721706471885
187. 1721706472041
188. 1721706472185
189. 1721706472341
190. 1721706472485
191. 1721706472641
192. 1721706472785
193. 1721706472941
194. 1721706473089
195. 1721706473241
196. 1721706473389
197. 1721706473549
198. 1721706473737
199. 1721706473893
200. 1721706474041
201. 1721706474193
202. 1721706474341
203. 1721706474493
204. 1721706474641
205. 1721706474797
206. 1721706474941
207. 1721706475101
208. 1721706475293
209. 1721706475445
210. 1721706475597
211. 1721706475749
212. 1721706475893
213. 1721706476049
214. 1721706476193
215. 1721706476349
216. 1721706476497
217. 1721706476649
218. 1721706476797
219. 1721706476949
220. 1721706477097
221. 1721706477249
222. 1721706477397
223. 1721706477553
224. 1721706477697
225. 1721706477853
226. 1721706477997
227. 1721706478153
228. 1721706478301
229. 1721706478453
230. 1721706478601
231. 1721706478757
232. 1721706478901
233. 1721706479053
234. 1721706479205
235. 1721706479357
236. 1721706479501
237. 1721706479657
238. 1721706479801
239. 1721706479957
240. 1721706480105
241. 1721706480257
242. 1721706480405
243. 1721706480557
244. 1721706480705
245. 1721706480857
246. 1721706481005
247. 1721706481157
248. 1721706481305
249. 1721706481461
250. 1721706481605
