INITIAL
* 10:15pm Jul 25, 2024
* a1 vs a0
* 1 2 2 2 2 2 5 1 2 2 2 2 2 5
* X X X X
* X X X X
* X X X X
* X X X X
* X X X X
* X X X X
* X X X X
* X X X X
* first 1
* time 900
* 1. c4(m) b3(G)
* 2. b1(M) b4(r)
* 3. a5(n) b5(K)
* 4. a2(C) c8(P)
* 5. a6(n) a3(g)
* 6. d7(C) b7(m)
* 7. a7(r) c1(P)
* 8. c5(G) a4(N)
* 9. a8(p) b3-a3
* 10. c6(p) c5-c6
* 11. c2(c) a3-b3
* 12. b6(g) a2-a3
* 13. d3(p) d2(c)
* 14. d6(P) d8(p)
* 15. b2(R) d7-b7
* 16. b6-b7 b5-a5
* 17. b4-b5 b2-c2
* 18. d8-d7 b3-b4
* 19. b5-c5 a3-b3
* 20. a1(N) c2-b2
* 21. d2-c2 d1(R)
* 22. c3(M) b8(P)
* 23. b7-b8 b2-c2
* 24. c4-c3 b4-b5
* 25. c3-c4 c2-c3
* 26. b8-b7 b3-b7
* 27. c7(P) c3-c2
* 28. c4-c3 d6-d7
* 29. c3-c4 c8-b8
* 30. d5(k) d7-d6
* 31. c4-b4 d6-d5
* 32. d3-c3 c7-d7
* 33. d4(p) d7-c7
* 34. d4-c4 c6-b6
* 35. a8-b8 b6-a6
* 36. b8-a8 b5-b4
* 37. c3-b3 a4-a3
* 38. c5-d5 b4-a4
* 39. d5-d6 a5-b5
* 40. b3-c3 b5-b6
* 41. c3-d3 c7-d7
* 42. d3-c3 b6-b5
* 43. a8-b8 b5-b4
* 44. d6-d5 a3-b3
* 45. a7-b7 d1-d2
* 46. c4-b4 d7-c7
* 47. b8-a8 d2-d3
* 48. d5-c5 d3-d4
* 49. c5-c4 b1-b2
* 50. b7-b8 c7-c8
* 51. a8-a7 d4-c4
* 52. b8-c8 c4-d4
* 53. b4-c4 b3-b4
* 54. c3-b3 a1-a2
* 55. c4-c3 a2-a1
* 56. c8-c7 c1-b1
* 57. c3-c4 c2-c1
* 58. c7-c6 d4-d3
* 59. c6-b6 b4-c4
* 60. a7-a8 d3-c3
* 61. b6-b7 c4-b4
* 62. a8-b8 b4-b5
* 63. b7-a7 a6-a7
* 64. b3-a3 b2-a2
* 65. b8-a8 c1-c2
* 66. a8-b8 a7-a8
* 67. a3-b3 a8-b8
* 68. b3-b2 b5-c5
* 69. b2-b3 c3-b3
* NoMove a0 Wins 0.000000,1.000000
* Comment 0 0
0. 1721916933776
1. 1721916933776
2. 1721916933957
3. 1721916934125
4. 1721916934309
5. 1721916934469
6. 1721916934657
7. 1721916934821
8. 1721916935009
9. 1721916935173
10. 1721916935361
11. 1721916935529
12. 1721916935713
13. 1721916935877
14. 1721916936061
15. 1721916936225
16. 1721916936413
17. 1721916936577
18. 1721916936765
19. 1721916936933
20. 1721916937117
21. 1721916937277
22. 1721916937469
23. 1721916937629
24. 1721916937817
25. 1721916937981
26. 1721916938169
27. 1721916938329
28. 1721916938521
29. 1721916938681
30. 1721916938869
31. 1721916939033
32. 1721916939221
33. 1721916939385
34. 1721916939573
35. 1721916939733
36. 1721916939921
37. 1721916940085
38. 1721916940273
39. 1721916940437
40. 1721916940625
41. 1721916940789
42. 1721916940977
43. 1721916941137
44. 1721916941333
45. 1721916941489
46. 1721916941677
47. 1721916941845
48. 1721916942029
49. 1721916942193
50. 1721916942381
51. 1721916942541
52. 1721916942729
53. 1721916942897
54. 1721916943085
55. 1721916943249
56. 1721916943437
57. 1721916943593
58. 1721916943785
59. 1721916943945
60. 1721916944137
61. 1721916944297
62. 1721916944485
63. 1721916944649
64. 1721916944837
65. 1721916944997
66. 1721916945185
67. 1721916945349
68. 1721916945537
69. 1721916945701
70. 1721916945893
71. 1721916946053
72. 1721916946237
73. 1721916946405
74. 1721916946589
75. 1721916946757
76. 1721916946941
77. 1721916947109
78. 1721916947297
79. 1721916947457
80. 1721916947641
81. 1721916947805
82. 1721916947993
83. 1721916948157
84. 1721916948345
85. 1721916948509
86. 1721916948697
87. 1721916948857
88. 1721916949045
89. 1721916949213
90. 1721916949397
91. 1721916949565
92. 1721916949749
93. 1721916949909
94. 1721916950097
95. 1721916950261
96. 1721916950449
97. 1721916950613
98. 1721916950801
99. 1721916950965
100. 1721916951157
101. 1721916951313
102. 1721916951501
103. 1721916951669
104. 1721916951853
105. 1721916952017
106. 1721916952205
107. 1721916952365
108. 1721916952557
109. 1721916952717
110. 1721916952905
111. 1721916953073
112. 1721916953257
113. 1721916953417
114. 1721916953609
115. 1721916953773
116. 1721916953957
117. 1721916954121
118. 1721916954313
119. 1721916954477
120. 1721916954661
121. 1721916954825
122. 1721916955013
123. 1721916955173
124. 1721916955361
125. 1721916955525
126. 1721916955717
127. 1721916955877
128. 1721916956065
129. 1721916956225
130. 1721916956417
131. 1721916956577
132. 1721916956769
133. 1721916956929
134. 1721916957117
135. 1721916957277
136. 1721916957469
137. 1721916957629
138. 1721916957825
