INITIAL
* 4:3pm Jul 25, 2024
* a1 vs a0
* 1 2 2 2 2 2 5 1 2 2 2 2 2 5
* X X X X
* X X X X
* X X X X
* X X X X
* X X X X
* X X X X
* X X X X
* X X X X
* first 1
* time 900
* 1. b5(c) b3(c)
* 2. a5(P) b4(R)
* 3. d6(p) a4(P)
* 4. c4(N) d7(M)
* 5. b1(C) c2(n)
* 6. b8(P) b6(G)
* 7. c8(G) b6-b5
* 8. c1(R) a2(C)
* 9. c3(K) b5-b6
* 10. c6(p) b1-b3
* 11. a8(p) a3(g)
* 12. d5(n) b6-c6
* 13. c5(N) b4-b5
* 14. d8(m) c6-d6
* 15. a3-a2 b2(p)
* 16. a1(p) a4-a3
* 17. b7(r) c4-b4
* 18. d3(M) c3-c4
* 19. a1-b1 b8-a8
* 20. d2(r) c8-d8
* 21. d1(g) d4(P)
* 22. a7(P) d3-d2
* 23. b1-a1 c1-c2
* 24. a2-a3 d6-c6
* 25. b2-b1 c2-b2
* 26. b1-c1 c6-d6
* 27. a3-a4 c4-c3
* 28. a1-a2 d8-c8
* 29. c1-b1 c8-d8
* 30. a4-a3 b4-a4
* 31. d1-c1 b5-b6
* 32. a2-a1 c5-b5
* 33. a3-a2 d6-c6
* 34. b7-a7 b3-b4
* 35. c7(m) b2-b1
* 36. c1-c2 c6-d6
* 37. a2-b2 b5-c5
* 38. c7-b7 a4-a3
* 39. b2-a2 a5-a4
* 40. b7-b8 c3-c4
* 41. a7-b7 d6-d5
* 42. b7-c7 d2-d1
* 43. c2-b2 d1-c1
* 44. b8-c8 c5-b5
* 45. a6(k) b1-a1
* 46. c7-b7 c1-b1
* 47. b2-c2 b6-b7
* 48. c2-b2 a8-b8
* 49. a6-a7 c4-c3
* 50. b2-c2 b5-b6
* 51. c2-d2 b4-b5
* 52. d2-c2 d7-d6
* 53. c2-b2 c3-d3
* 54. a2-a1 a3-b3
* 55. a1-b1 d6-c6
* 56. b2-c2 b5-c5
* 57. c2-d2 b3-b2
* 58. a7-b7 c5-b5
* 59. b7-c7 d4-c4
* 60. c7-b7 a4-b4
* 61. b1-c1 d5-d4
* 62. c1-b1 b5-a5
* 63. d2-c2 b2-b3
* 64. b1-c1 b3-a3
* 65. c8-b8 d3-d2
* 66. b7-c7 c4-c3
* 67. c1-b1 a5-b5
* 68. c2-b2 b6-b7
* 69. b8-c8 c6-b6
* 70. b1-a1 b5-a5
* 71. a1-a2 c3-c2
* 72. b2-b1 d4-c4
* 73. c8-b8 d8-d7
* 74. b8-b7 b6-b5
* 75. a2-a3 d7-d8
* 76. b7-b8 c2-c3
* 77. a3-a2 c4-d4
* 78. c7-c6 a5-a4
* 79. c6-c7 a4-a5
* 80. a2-a1 b4-c4
* 81. b8-c8 d8-c8
* 82. c7-b7 c3-d3
* 83. b7-b8 d3-c3
* 84. b8-a8 c4-b4
* 85. b1-c1 c3-c4
* 86. a1-b1 a5-a6
* 87. a8-b8 b4-b3
* 88. c1-d1 a6-a5
* 89. b1-a1 c8-d8
* 90. b8-a8 d8-c8
* 91. d1-c1 c8-b8
* 92. a1-b1 d4-d3
* 93. a8-a7 d2-c2
* 94. a7-a6 b8-a8
* 95. a6-a7 b5-b6
* 96. a7-b7 c2-b2
* 97. b7-b6 d3-d4
* 98. b6-c6 b3-c3
* 99. c1-d1 d4-d5
* 100. c6-d6 c4-d4
* 101. d6-d7 c3-b3
* 102. d7-d8 b3-c3
* 103. d1-d2 c3-d3
* 104. b1-c1 a5-a4
* 105. c1-c2 d5-c5
* 106. d2-d1 b2-b3
* 107. d8-c8 d4-c4
* 108. d1-c1 a4-a3
* 109. c2-b2 b3-c3
* 110. b2-b1 a3-a4
* 111. c8-b8 c5-c6
* 112. b8-c8 a8-a7
* 113. c1-d1 c4-b4
* 114. c8-b8 b4-b3
* 115. b1-c1 d3-d4
* 116. b8-a8 c3-d3
* 117. c1-c2 d3-d2
* 118. c2-b2 d2-d1
* 119. a8-b8 c6-c7
* 120. b8-a8 a7-a6
* 121. b2-c2 a4-a8
* 122. c2-b2 c7-c8
* 123. b2-c2 c8-b8
* 124. c2-b2 d4-c4
* 125. b2-c2 a6-b6
* 126. c2-c3 c4-c5
* 127. c3-d3 c5-c4
* 128. d3-d2 c4-c3
* 129. d2-c2 b3-a3
* 130. c2-d2 d1-d2
* NoMove a0 Wins 0.000000,1.000000
* Comment 0 0
0. 1721894616524
1. 1721894616524
2. 1721894616721
3. 1721894616869
4. 1721894617021
5. 1721894617169
6. 1721894617329
7. 1721894617521
8. 1721894617677
9. 1721894617869
10. 1721894618025
11. 1721894618173
12. 1721894618325
13. 1721894618473
14. 1721894618629
15. 1721894618773
16. 1721894618929
17. 1721894619077
18. 1721894619229
19. 1721894619377
20. 1721894619533
21. 1721894619677
22. 1721894619829
23. 1721894619977
24. 1721894620133
25. 1721894620281
26. 1721894620433
27. 1721894620581
28. 1721894620733
29. 1721894620885
30. 1721894621033
31. 1721894621185
32. 1721894621337
33. 1721894621537
34. 1721894621685
35. 1721894621837
36. 1721894621993
37. 1721894622137
38. 1721894622289
39. 1721894622441
40. 1721894622589
41. 1721894622741
42. 1721894622889
43. 1721894623041
44. 1721894623197
45. 1721894623345
46. 1721894623497
47. 1721894623645
48. 1721894623797
49. 1721894623949
50. 1721894624093
51. 1721894624253
52. 1721894624449
53. 1721894624601
54. 1721894624745
55. 1721894624901
56. 1721894625049
57. 1721894625201
58. 1721894625349
59. 1721894625501
60. 1721894625649
61. 1721894625801
62. 1721894625949
63. 1721894626105
64. 1721894626253
65. 1721894626405
66. 1721894626553
67. 1721894626705
68. 1721894626857
69. 1721894627005
70. 1721894627153
71. 1721894627357
72. 1721894627509
73. 1721894627657
74. 1721894627805
75. 1721894628009
76. 1721894628157
77. 1721894628309
78. 1721894628457
79. 1721894628609
80. 1721894628757
81. 1721894628913
82. 1721894629057
83. 1721894629213
84. 1721894629357
85. 1721894629513
86. 1721894629661
87. 1721894629813
88. 1721894629961
89. 1721894630117
90. 1721894630261
91. 1721894630421
92. 1721894630617
93. 1721894630769
94. 1721894630913
95. 1721894631069
96. 1721894631213
97. 1721894631369
98. 1721894631517
99. 1721894631669
100. 1721894631817
101. 1721894631973
102. 1721894632117
103. 1721894632273
104. 1721894632417
105. 1721894632573
106. 1721894632717
107. 1721894632873
108. 1721894633021
109. 1721894633173
110. 1721894633321
111. 1721894633477
112. 1721894633621
113. 1721894633777
114. 1721894633921
115. 1721894634077
116. 1721894634225
117. 1721894634377
118. 1721894634525
119. 1721894634677
120. 1721894634825
121. 1721894634981
122. 1721894635125
123. 1721894635281
124. 1721894635425
125. 1721894635581
126. 1721894635729
127. 1721894635881
128. 1721894636029
129. 1721894636185
130. 1721894636329
131. 1721894636485
132. 1721894636629
133. 1721894636785
134. 1721894636933
135. 1721894637085
136. 1721894637233
137. 1721894637385
138. 1721894637533
139. 1721894637689
140. 1721894637837
141. 1721894637989
142. 1721894638137
143. 1721894638289
144. 1721894638437
145. 1721894638589
146. 1721894638741
147. 1721894638889
148. 1721894639041
149. 1721894639193
150. 1721894639337
151. 1721894639493
152. 1721894639637
153. 1721894639793
154. 1721894639937
155. 1721894640093
156. 1721894640245
157. 1721894640393
158. 1721894640545
159. 1721894640697
160. 1721894640845
161. 1721894640997
162. 1721894641141
163. 1721894641345
164. 1721894641497
165. 1721894641649
166. 1721894641793
167. 1721894641949
168. 1721894642097
169. 1721894642249
170. 1721894642397
171. 1721894642549
172. 1721894642697
173. 1721894642849
174. 1721894642997
175. 1721894643153
176. 1721894643301
177. 1721894643453
178. 1721894643597
179. 1721894643753
180. 1721894643901
181. 1721894644053
182. 1721894644205
183. 1721894644353
184. 1721894644501
185. 1721894644657
186. 1721894644805
187. 1721894644961
188. 1721894645153
189. 1721894645305
190. 1721894645453
191. 1721894645609
192. 1721894645757
193. 1721894645909
194. 1721894646053
195. 1721894646213
196. 1721894646405
197. 1721894646565
198. 1721894646757
199. 1721894646913
200. 1721894647061
201. 1721894647213
202. 1721894647357
203. 1721894647513
204. 1721894647657
205. 1721894647813
206. 1721894647961
207. 1721894648113
208. 1721894648265
209. 1721894648421
210. 1721894648613
211. 1721894648765
212. 1721894648917
213. 1721894649069
214. 1721894649213
215. 1721894649369
216. 1721894649517
217. 1721894649669
218. 1721894649813
219. 1721894649969
220. 1721894650113
221. 1721894650269
222. 1721894650421
223. 1721894650573
224. 1721894650765
225. 1721894650921
226. 1721894651065
227. 1721894651221
228. 1721894651369
229. 1721894651525
230. 1721894651717
231. 1721894651873
232. 1721894652017
233. 1721894652177
234. 1721894652369
235. 1721894652525
236. 1721894652669
237. 1721894652825
238. 1721894652969
239. 1721894653129
240. 1721894653321
241. 1721894653477
242. 1721894653621
243. 1721894653785
244. 1721894653973
245. 1721894654129
246. 1721894654273
247. 1721894654429
248. 1721894654573
249. 1721894654733
250. 1721894654929
251. 1721894655081
252. 1721894655229
253. 1721894655385
254. 1721894655581
255. 1721894655733
256. 1721894655877
257. 1721894656033
258. 1721894656177
259. 1721894656337
260. 1721894656529
