INITIAL
* 0:28pm Jul 26, 2024
* a1 vs a0
* 1 2 2 2 2 2 5 1 2 2 2 2 2 5
* X X X X
* X X X X
* X X X X
* X X X X
* X X X X
* X X X X
* X X X X
* X X X X
* first 1
* time 900
* 1. c7(g) b3(P)
* 2. a6(c) b4(R)
* 3. d1(R) c6(N)
* 4. d5(P) c3(c)
* 5. a5(C) b1(r)
* 6. c1(P) b8(k)
* 7. a8(m) c4(m)
* 8. d8(p) d4(p)
* 9. a2(p) c5(P)
* 10. c2(M) a3(P)
* 11. d3(M) d2(N)
* 12. b7(G) b7-c7
* 13. a7(G) a7-a8
* 14. a4(g) d5-d4
* 15. c4-d4 b2(r)
* 16. c3-c4 b6(C)
* 17. d7(n) c8(p)
* 18. d6(p) c7-c8
* 19. a4-a3 b4-a4
* 20. d7-c7 c2-c3
* 21. c7-b7 d3-d4
* 22. d6-d5 c8-d8
* 23. b1-c1 c6-d6
* 24. b2-c2 d6-d5
* 25. c1-d1 b6-b8
* 26. a1(n) b5(K)
* 27. d1-d2 c3-c4
* 28. a3-b3 d8-d7
* 29. d2-d3 c4-b4
* 30. a2-a3 b8-c8
* 31. a1-b1 b5-b6
* 32. c2-d2 d7-d8
* 33. a6-a4 a8-b8
* 34. b1-c1 c5-b5
* 35. b7-a7 d5-c5
* 36. b3-b4 c5-c6
* 37. a3-b3 d4-d3
* 38. d2-d1 b5-c5
* 39. a4-a3 c8-c7
* 40. b4-a4 d3-c3
* 41. a3-a2 b8-c8
* 42. d1-d2 c3-c2
* 43. b3-c3 c2-c1
* 44. a2-a1 c1-b1
* 45. a7-a8 a5-b5
* 46. d2-d3 b5-a5
* 47. d3-d2 b1-a1
* 48. a8-a7 d8-d7
* 49. a7-b7 b6-b7
* 50. c3-d3 a5-a6
* 51. d3-c3 a6-a7
* 52. c3-d3 a1-b1
* 53. a4-b4 c6-d6
* 54. b4-a4 b1-c1
* 55. d3-d4 a7-a8
* 56. a4-a5 c5-c6
* 57. d2-d3 b7-b6
* 58. d3-c3 c1-b1
* 59. c3-b3 c6-c5
* 60. a5-b5 d6-c6
* 61. b3-a3 a8-a7
* 62. d4-c4 c5-c4
* 63. a3-a4 b1-b2
* 64. a4-a5 c4-d4
* 65. a5-a4 d4-d5
* 66. a4-a5 b2-c2
* 67. b5-b4 c2-b2
* 68. a5-a6 b6-b5
* 69. b4-c4 c8-b8
* 70. a6-a7 b2-b3
* 71. a7-b7 c6-d6
* 72. c4-b4 b8-a8
* 73. b7-a7 d6-c6
* 74. a7-a6 b5-b6
* 75. b4-b3 d5-d6
* 76. b3-b4 c7-c8
* 77. b4-c4 b6-b5
* 78. a6-a5 c8-c7
* 79. c4-c5 b5-b6
* 80. c5-b5 a8-b8
* 81. a5-a4 c7-b7
* 82. a4-b4 b6-a6
* 83. b4-b3 b7-b6
* 84. b3-a3 d7-c7
* 85. a3-a2 c7-c8
* 86. a2-a1 d6-d7
* 87. b5-b4 c6-d6
* 88. b4-c4 a6-a7
* 89. c4-b4 d7-d8
* 90. a1-b1 b6-a6
* 91. b1-b2 c8-c7
* 92. b2-b1 b8-a8
* 93. b1-a1 c7-b7
* 94. a1-a2 d6-d5
* 95. a2-a3 d8-c8
* 96. b4-a4 b7-c7
* 97. a4-b4 d5-d6
* 98. a3-b3 c7-c6
* 99. b3-c3 c6-c5
* 100. b4-a4 c5-c4
* 101. c3-b3 d6-c6
* 102. a4-a3 c6-d6
* 103. a3-a4 c8-c7
* 104. a4-a3 d6-d7
* 105. a3-a4 d7-d8
* 106. a4-a5 c7-d7
* 107. a5-b5 c4-b4
* 108. b5-b4 d8-c8
* 109. b3-a3 d7-c7
* 110. a3-b3 a6-b6
* 111. b3-c3 b6-b7
* 112. c3-b3 b7-b3
* 113. b4-c4 a7-a6
* 114. c4-d4 a6-a5
* 115. d4-c4 b3-b4
* 116. c4-d4 c8-d8
* 117. d4-d5 a5-a6
* 118. d5-c5 d8-d7
* 119. c5-b5 c7-b7
* 120. b5-c5 b7-c7
* 121. c5-c6 d7-d6
* 122. c6-c7 d6-c6
* 123. c7-b7 b4-b5
* 124. b7-a7 a8-a7
* NoMove a0 Wins 0.000000,1.000000
* Comment 0 0
0. 1721968093980
1. 1721968093980
2. 1721968094181
3. 1721968094373
4. 1721968094533
5. 1721968094725
6. 1721968094885
7. 1721968095077
8. 1721968095237
9. 1721968095429
10. 1721968095585
11. 1721968095785
12. 1721968095937
13. 1721968096129
14. 1721968096293
15. 1721968096481
16. 1721968096645
17. 1721968096833
18. 1721968096989
19. 1721968097133
20. 1721968097293
21. 1721968097489
22. 1721968097641
23. 1721968097785
24. 1721968097945
25. 1721968098137
26. 1721968098297
27. 1721968098493
28. 1721968098645
29. 1721968098837
30. 1721968098997
31. 1721968099189
32. 1721968099349
33. 1721968099541
34. 1721968099697
35. 1721968099893
36. 1721968100053
37. 1721968100245
38. 1721968100401
39. 1721968100593
40. 1721968100749
41. 1721968100893
42. 1721968101053
43. 1721968101245
44. 1721968101401
45. 1721968101545
46. 1721968101709
47. 1721968101897
48. 1721968102053
49. 1721968102197
50. 1721968102357
51. 1721968102553
52. 1721968102709
53. 1721968102901
54. 1721968103061
55. 1721968103249
56. 1721968103409
57. 1721968103605
58. 1721968103761
59. 1721968103953
60. 1721968104109
61. 1721968104305
62. 1721968104461
63. 1721968104653
64. 1721968104817
65. 1721968105005
66. 1721968105165
67. 1721968105361
68. 1721968105513
69. 1721968105709
70. 1721968105869
71. 1721968106061
72. 1721968106217
73. 1721968106409
74. 1721968106565
75. 1721968106757
76. 1721968106921
77. 1721968107109
78. 1721968107269
79. 1721968107461
80. 1721968107617
81. 1721968107761
82. 1721968107921
83. 1721968108113
84. 1721968108269
85. 1721968108413
86. 1721968108573
87. 1721968108769
88. 1721968108925
89. 1721968109113
90. 1721968109273
91. 1721968109465
92. 1721968109621
93. 1721968109769
94. 1721968109925
95. 1721968110117
96. 1721968110273
97. 1721968110421
98. 1721968110581
99. 1721968110769
100. 1721968110929
101. 1721968111125
102. 1721968111277
103. 1721968111421
104. 1721968111577
105. 1721968111725
106. 1721968111877
107. 1721968112021
108. 1721968112181
109. 1721968112377
110. 1721968112533
111. 1721968112729
112. 1721968112885
113. 1721968113073
114. 1721968113233
115. 1721968113425
116. 1721968113581
117. 1721968113725
118. 1721968113885
119. 1721968114077
120. 1721968114233
121. 1721968114381
122. 1721968114537
123. 1721968114729
124. 1721968114889
125. 1721968115081
126. 1721968115241
127. 1721968115429
128. 1721968115585
129. 1721968115729
130. 1721968115889
131. 1721968116081
132. 1721968116237
133. 1721968116381
134. 1721968116541
135. 1721968116733
136. 1721968116893
137. 1721968117089
138. 1721968117245
139. 1721968117433
140. 1721968117593
141. 1721968117785
142. 1721968117941
143. 1721968118089
144. 1721968118245
145. 1721968118441
146. 1721968118593
147. 1721968118737
148. 1721968118897
149. 1721968119093
150. 1721968119245
151. 1721968119389
152. 1721968119553
153. 1721968119741
154. 1721968119901
155. 1721968120089
156. 1721968120253
157. 1721968120441
158. 1721968120601
159. 1721968120793
160. 1721968120957
161. 1721968121141
162. 1721968121301
163. 1721968121493
164. 1721968121657
165. 1721968121845
166. 1721968122009
167. 1721968122197
168. 1721968122353
169. 1721968122549
170. 1721968122709
171. 1721968122901
172. 1721968123057
173. 1721968123249
174. 1721968123405
175. 1721968123597
176. 1721968123761
177. 1721968123953
178. 1721968124113
179. 1721968124301
180. 1721968124461
181. 1721968124649
182. 1721968124813
183. 1721968125005
184. 1721968125165
185. 1721968125353
186. 1721968125513
187. 1721968125701
188. 1721968125865
189. 1721968126057
190. 1721968126213
191. 1721968126409
192. 1721968126569
193. 1721968126753
194. 1721968126913
195. 1721968127105
196. 1721968127265
197. 1721968127461
198. 1721968127617
199. 1721968127813
200. 1721968127973
201. 1721968128157
202. 1721968128321
203. 1721968128513
204. 1721968128673
205. 1721968128861
206. 1721968129025
207. 1721968129209
208. 1721968129373
209. 1721968129565
210. 1721968129721
211. 1721968129913
212. 1721968130077
213. 1721968130261
214. 1721968130425
215. 1721968130617
216. 1721968130773
217. 1721968130965
218. 1721968131129
219. 1721968131313
220. 1721968131481
221. 1721968131665
222. 1721968131825
223. 1721968132017
224. 1721968132177
225. 1721968132369
226. 1721968132529
227. 1721968132717
228. 1721968132877
229. 1721968133069
230. 1721968133229
231. 1721968133421
232. 1721968133581
233. 1721968133769
234. 1721968133937
235. 1721968134121
236. 1721968134285
237. 1721968134473
238. 1721968134633
239. 1721968134821
240. 1721968134985
241. 1721968135177
242. 1721968135341
243. 1721968135525
244. 1721968135685
245. 1721968135877
246. 1721968136037
247. 1721968136229
248. 1721968136393
