INITIAL
* 4:20pm Jul 28, 2024
* a1 vs a0
* 1 2 2 2 2 2 5 1 2 2 2 2 2 5
* X X X X
* X X X X
* X X X X
* X X X X
* X X X X
* X X X X
* X X X X
* X X X X
* first 1
* time 900
* 1. c2(p) b3(k)
* 2. b8(m) b2(N)
* 3. d5(c) b2-c2
* 4. d1(P) d7(r)
* 5. c5(R) a2(G)
* 6. a5(m) b6(n)
* 7. b4(P) b7(R)
* 8. d2(G) a2-b2
* 9. c1(P) c7(p)
* 10. a3(p) a4(r)
* 11. b5(P) d3(K)
* 12. a1(p) c6(g)
* 13. a8(g) b7-b6
* 14. a3-a2 b4-b3
* 15. d4(C) c3(P)
* 16. a4-b4 d6(c)
* 17. b1(p) c8(C)
* 18. a5-b5 c5-d5
* 19. b1-c1 b3-a3
* 20. b4-a4 c3-b3
* 21. b8-b7 c8-c6
* 22. b5-a5 d4-d6
* 23. a6(n) c2-c3
* 24. b7-b8 c6-c5
* 25. a2-a3 b2-c2
* 26. a1-a2 c5-c6
* 27. a5-b5 d5-d4
* 28. a2-b2 d6-d5
* 29. c7-c8 d5-c5
* 30. d7-c7 c6-a6
* 31. b5-b6 a6-a8
* 32. b8-b7 c5-b5
* 33. b6-a6 b5-b4
* 34. b7-b8 c4(N)
* 35. b2-b1 b4-b1
* 36. c7-b7 b3-b4
* 37. a6-a5 d4-d5
* 38. a4-b4 c4-d4
* 39. a5-b5 a8-c8
* 40. d8(M) b1-a1
* 41. b5-b6 a1-b1
* 42. a7(M) d5-c5
* 43. b6-b5 c3-c4
* 44. b8-a8 c5-d5
* 45. b4-b3 a7-a6
* 46. a8-a7 a6-a5
* 47. b5-b6 c4-b4
* 48. b3-c3 a5-a4
* 49. b6-b5 c8-c7
* 50. a7-a8 c7-c8
* 51. c1-d1 d5-c5
* 52. a8-b8 d4-d5
* 53. c3-c4 c5-c4
* 54. a3-a2 c2-c3
* 55. b5-b6 d5-c5
* 56. b8-c8 d2-d1
* 57. b6-c6 d1-d2
* 58. c8-c7 d2-d1
* 59. c6-c5 c4-d4
* 60. a2-a1 d3-d2
* 61. c7-d7 b4-b5
* 62. b7-c7 b5-a5
* 63. c5-b5 b1-c1
* 64. b5-b4 d4-d3
* 65. d7-d6 d2-c2
* 66. d6-c6 c2-b2
* 67. c6-c5 b2-b3
* 68. c5-c4 b3-b4
* 69. a1-b1 a5-a6
* 70. c7-c6 c3-c4
* 71. c6-d6 d1-d2
* 72. d6-d5 c4-c5
* 73. d5-d4 a6-a7
* 74. d4-c4 b4-b5
* 75. b1-b2 d3-c3
* 76. b2-c2 a7-a6
* 77. c4-b4 b5-b6
* 78. b4-c4 d2-c2
* 79. c4-d4 c1-d1
* 80. d4-c4 d8-c8
* 81. c4-b4 c8-c7
* 82. b4-b3 a4-a5
* 83. b3-b4 b6-c6
* 84. b4-b5 d1-c1
* 85. b5-b6 c6-d6
* 86. b6-b5 d6-d7
* 87. b5-b6 c7-b7
* 88. b6-c6 d7-d6
* 89. c6-b6 c1-d1
* 90. b6-a6 c2-b2
* 91. a6-a7 c3-c4
* 92. a7-a8 b7-b8
* 93. a8-a7 b2-c2
* 94. a7-b7 a5-a6
* 95. b7-a7 c2-c3
* 96. a7-a8 d6-d7
* 97. a8-a7 c5-b5
* 98. a7-b7 b5-b4
* 99. b7-b6 b4-b5
* 100. b6-b7 c4-c5
* 101. b7-a7 d7-c7
* 102. a7-b7 c5-d5
* 103. b7-a7 b8-b7
* 104. a7-a8 d1-d2
* 105. a8-b8 b7-b6
* 106. b8-b7 c7-c8
* 107. b7-a7 d5-c5
* 108. a7-a8 c8-b8
* 109. a8-a7 c3-d3
* 110. a7-a8 d2-c2
* 111. a8-a7 d3-c3
* 112. a7-a8 b5-a5
* 113. a8-a7 c3-d3
* 114. a7-a8 a5-b5
* 115. a8-a7 a6-a5
* 116. a7-b7 c2-c3
* 117. b7-a7 c5-c4
* 118. a7-b7 b5-c5
* 119. b7-a7 a5-a4
* 120. a7-a8 b6-b5
* 121. a8-a7 b8-c8
* 122. a7-b7 c4-d4
* 123. b7-b6 c5-c6
* 124. b6-b7 d3-d2
* 125. b7-b8 c3-d3
* 126. b8-a8 a4-a3
* 127. a8-b8 c6-c5
* 128. b8-a8 d3-c3
* 129. a8-b8 d4-d3
* 130. b8-a8 c8-d8
* 131. a8-b8 b5-a5
* 132. b8-a8 d8-c8
* 133. a8-b8 c8-c7
* 134. b8-a8 c7-b7
* 135. a8-a7 b7-a7
* NoMove a0 Wins 0.000000,1.000000
* Comment 0 0
0. 1722154809785
1. 1722154809785
2. 1722154809973
3. 1722154810133
4. 1722154810321
5. 1722154810477
6. 1722154810621
7. 1722154810777
8. 1722154810921
9. 1722154811085
10. 1722154811273
11. 1722154811429
12. 1722154811573
13. 1722154811733
14. 1722154811925
15. 1722154812081
16. 1722154812225
17. 1722154812381
18. 1722154812525
19. 1722154812685
20. 1722154812877
21. 1722154813037
22. 1722154813225
23. 1722154813385
24. 1722154813577
25. 1722154813737
26. 1722154813933
27. 1722154814085
28. 1722154814229
29. 1722154814389
30. 1722154814581
31. 1722154814737
32. 1722154814881
33. 1722154815037
34. 1722154815185
35. 1722154815341
36. 1722154815529
37. 1722154815689
38. 1722154815881
39. 1722154816041
40. 1722154816233
41. 1722154816393
42. 1722154816585
43. 1722154816745
44. 1722154816937
45. 1722154817093
46. 1722154817289
47. 1722154817445
48. 1722154817637
49. 1722154817797
50. 1722154817989
51. 1722154818145
52. 1722154818337
53. 1722154818497
54. 1722154818689
55. 1722154818849
56. 1722154819041
57. 1722154819197
58. 1722154819341
59. 1722154819505
60. 1722154819693
61. 1722154819849
62. 1722154819993
63. 1722154820149
64. 1722154820293
65. 1722154820453
66. 1722154820645
67. 1722154820801
68. 1722154820945
69. 1722154821101
70. 1722154821249
71. 1722154821401
72. 1722154821545
73. 1722154821705
74. 1722154821897
75. 1722154822053
76. 1722154822197
77. 1722154822353
78. 1722154822497
79. 1722154822657
80. 1722154822849
81. 1722154823005
82. 1722154823149
83. 1722154823309
84. 1722154823501
85. 1722154823657
86. 1722154823801
87. 1722154823957
88. 1722154824101
89. 1722154824261
90. 1722154824453
91. 1722154824609
92. 1722154824753
93. 1722154824909
94. 1722154825053
95. 1722154825217
96. 1722154825405
97. 1722154825561
98. 1722154825705
99. 1722154825865
100. 1722154826057
101. 1722154826213
102. 1722154826357
103. 1722154826513
104. 1722154826657
105. 1722154826817
106. 1722154827009
107. 1722154827165
108. 1722154827309
109. 1722154827465
110. 1722154827609
111. 1722154827769
112. 1722154827961
113. 1722154828117
114. 1722154828261
115. 1722154828421
116. 1722154828613
117. 1722154828769
118. 1722154828913
119. 1722154829069
120. 1722154829213
121. 1722154829373
122. 1722154829565
123. 1722154829721
124. 1722154829865
125. 1722154830021
126. 1722154830165
127. 1722154830325
128. 1722154830517
129. 1722154830677
130. 1722154830869
131. 1722154831025
132. 1722154831169
133. 1722154831325
134. 1722154831473
135. 1722154831625
136. 1722154831769
137. 1722154831929
138. 1722154832121
139. 1722154832281
140. 1722154832473
141. 1722154832633
142. 1722154832821
143. 1722154832981
144. 1722154833173
145. 1722154833333
146. 1722154833525
147. 1722154833681
148. 1722154833825
149. 1722154833981
150. 1722154834125
151. 1722154834281
152. 1722154834425
153. 1722154834581
154. 1722154834725
155. 1722154834881
156. 1722154835033
157. 1722154835181
158. 1722154835329
159. 1722154835481
160. 1722154835629
161. 1722154835785
162. 1722154835929
163. 1722154836081
164. 1722154836229
165. 1722154836385
166. 1722154836533
167. 1722154836685
168. 1722154836833
169. 1722154836985
170. 1722154837133
171. 1722154837285
172. 1722154837433
173. 1722154837585
174. 1722154837733
175. 1722154837885
176. 1722154838037
177. 1722154838185
178. 1722154838337
179. 1722154838489
180. 1722154838637
181. 1722154838789
182. 1722154838937
183. 1722154839089
184. 1722154839237
185. 1722154839389
186. 1722154839545
187. 1722154839689
188. 1722154839841
189. 1722154839989
190. 1722154840141
191. 1722154840293
192. 1722154840441
193. 1722154840593
194. 1722154840741
195. 1722154840893
196. 1722154841041
197. 1722154841193
198. 1722154841345
199. 1722154841493
200. 1722154841645
201. 1722154841793
202. 1722154841945
203. 1722154842093
204. 1722154842245
205. 1722154842397
206. 1722154842545
207. 1722154842697
208. 1722154842845
209. 1722154842997
210. 1722154843149
211. 1722154843297
212. 1722154843449
213. 1722154843597
214. 1722154843749
215. 1722154843901
216. 1722154844049
217. 1722154844201
218. 1722154844349
219. 1722154844501
220. 1722154844653
221. 1722154844801
222. 1722154844953
223. 1722154845101
224. 1722154845253
225. 1722154845405
226. 1722154845553
227. 1722154845705
228. 1722154845853
229. 1722154846005
230. 1722154846153
231. 1722154846305
232. 1722154846461
233. 1722154846605
234. 1722154846757
235. 1722154846905
236. 1722154847057
237. 1722154847209
238. 1722154847361
239. 1722154847509
240. 1722154847657
241. 1722154847809
242. 1722154847961
243. 1722154848109
244. 1722154848261
245. 1722154848409
246. 1722154848561
247. 1722154848713
248. 1722154848861
249. 1722154849013
250. 1722154849161
251. 1722154849313
252. 1722154849465
253. 1722154849613
254. 1722154849765
255. 1722154849913
256. 1722154850065
257. 1722154850213
258. 1722154850365
259. 1722154850517
260. 1722154850665
261. 1722154850817
262. 1722154850965
263. 1722154851117
264. 1722154851269
265. 1722154851421
266. 1722154851569
267. 1722154851717
268. 1722154851869
269. 1722154852021
270. 1722154852169
