INITIAL
* 4:5pm Jul 28, 2024
* a0 vs a1
* 1 2 2 2 2 2 5 1 2 2 2 2 2 5
* X X X X
* X X X X
* X X X X
* X X X X
* X X X X
* X X X X
* X X X X
* X X X X
* first 0
* time 900
* 1. a8(N) b7(r)
* 2. c3(p) d4(p)
* 3. b3(m) c2(n)
* 4. c7(R) b1(p)
* 5. d1(r) a7(g)
* 6. a1(P) d7(C)
* 7. c6(K) b2(m)
* 8. b8(R) d8(P)
* 9. b8-b7 d5(g)
* 10. b4(M) d2(c)
* 11. c8(P) c4(C)
* 12. c5(P) a7-b7
* 13. d3(G) b7-c7
* 14. d7-d5 c7-d7
* 15. d6(G) d7-d6
* 16. a8-a7 c1(p)
* 17. a1-b1 b3-b4
* 18. a7-b7 c3-b3
* 19. a4(n) a3(c)
* 20. c8-c7 c1-b1
* 21. a5(N) b1-a1
* 22. c4-c3 c2-c3
* 23. c5-c4 b2-b1
* 24. c7-d7 b4-c4
* 25. d5-c5 d4-d5
* 26. c6-d6 d5-d6
* 27. c5-c3 d6-d7
* 28. d8-d7 b3-b2
* 29. b7-c7 b2-c2
* 30. b6(k) b6-c6
* 31. c3-b3 a2(P)
* 32. d3-d2 c2-b2
* 33. d2-d1 a4-b4
* 34. d1-c1 a6(M)
* 35. d7-d6 c6-c7
* 36. c1-c2 c4-d4
* 37. d6-d7 b5(p)
* 38. b3-c3 d4-c4
* 39. a2-a1 c4-d4
* 40. a5-a4 d4-d3
* 41. c2-c1 c7-c8
* 42. d7-c7 b2-a2
* 43. c1-d1 d3-d2
* 44. c3-c2 a3-b3
* 45. a4-b4 b1-c1
* 46. c7-c8 b5-a5
* 47. d1-c1 d2-d3
* 48. c2-d2 a5-a4
* 49. c1-c2 a2-a3
* 50. a6-a7 a3-a2
* 51. a7-a8 b3-c3
* 52. b4-c4 d3-d4
* 53. c8-d8 a2-a1
* 54. d2-d3 c3-b3
* 55. c2-b2 a1-a2
* 56. b2-b3 a4-b4
* 57. d8-c8 d4-d5
* 58. b3-a3 b4-b5
* 59. a3-b3 b5-c5
* 60. a8-a7 d5-d4
* 61. a7-a8 a2-a1
* 62. d3-d2 d4-d5
* 63. c8-c7 d5-d6
* 64. b3-b4 d6-c6
* 65. c7-d7 c6-b6
* 66. c4-c5 b6-b7
* 67. d7-d8 a1-b1
* 68. c5-c4 b1-b2
* 69. d8-c8 b7-b8
* 70. a8-b8 b2-a2
* 71. d2-d1 a2-a3
* 72. b8-a8 a3-a4
* 73. a8-b8 a4-a5
* 74. c8-c7 a5-a4
* 75. d1-d2 a4-a3
* 76. c4-d4 a3-b3
* 77. c7-c6 b3-b2
* 78. d4-c4 b2-b3
* 79. c6-d6 b3-a3
* 80. b8-b7 a3-b3
* 81. d6-d5 b3-a3
* 82. c4-d4 a3-a4
* 83. b7-c7 a4-a5
* 84. d2-c2 a5-b5
* 85. d4-c4 b5-a5
* 86. c2-c1 a5-b5
* 87. c7-d7 b5-a5
* 88. d5-d4 a5-b5
* 89. d4-d3 b5-c5
* 90. d7-d6 c5-d5
* 91. d6-c6 d5-d6
* 92. c1-c2 d6-d7
* 93. d3-d4 d7-c7
* 94. c2-b2 c7-c8
* 95. b4-a4 c8-c7
* 96. c6-d6 c7-b7
* 97. a4-b4 b7-b6
* 98. b4-b5 b6-a6
* 99. d6-d7 a6-b6
* 100. d7-c7 b6-a6
* 101. c4-c5 a6-b6
* 102. c5-c4 b6-a6
* 103. c7-b7 a6-a5
* 104. b5-b4 a5-a6
* 105. b2-c2 a6-a7
* 106. b7-b6 a7-a6
* 107. b4-b3 a6-a5
* 108. c4-c3 a5-a4
* 109. d4-c4 a4-a5
* 110. b3-a3 a5-a4
* 111. c2-b2 a4-a5
* 112. a3-a4 a5-b5
* 113. b6-b7 b5-c5
* 114. b7-a7 c5-c6
* 115. c4-c5 c6-c5
* 116. c3-c2 c5-c4
* 117. c2-c3 c4-b4
* 118. c3-c2 b4-b3
* 119. c2-c3 b3-b4
* 120. a4-b4
* NoMove a0 Wins 1.000000,0.000000
* Comment 0 0
0. 1722153904420
1. 1722153904420
2. 1722153904609
3. 1722153904761
4. 1722153904917
5. 1722153905069
6. 1722153905213
7. 1722153905365
8. 1722153905513
9. 1722153905665
10. 1722153905813
11. 1722153905965
12. 1722153906113
13. 1722153906265
14. 1722153906413
15. 1722153906565
16. 1722153906713
17. 1722153906869
18. 1722153907017
19. 1722153907169
20. 1722153907317
21. 1722153907469
22. 1722153907617
23. 1722153907769
24. 1722153907917
25. 1722153908069
26. 1722153908217
27. 1722153908369
28. 1722153908517
29. 1722153908669
30. 1722153908825
31. 1722153908973
32. 1722153909121
33. 1722153909273
34. 1722153909421
35. 1722153909573
36. 1722153909721
37. 1722153909873
38. 1722153910021
39. 1722153910173
40. 1722153910329
41. 1722153910477
42. 1722153910625
43. 1722153910781
44. 1722153910925
45. 1722153911077
46. 1722153911225
47. 1722153911377
48. 1722153911525
49. 1722153911677
50. 1722153911825
51. 1722153911981
52. 1722153912129
53. 1722153912281
54. 1722153912429
55. 1722153912581
56. 1722153912729
57. 1722153912881
58. 1722153913029
59. 1722153913185
60. 1722153913329
61. 1722153913485
62. 1722153913629
63. 1722153913785
64. 1722153913933
65. 1722153914085
66. 1722153914233
67. 1722153914393
68. 1722153914581
69. 1722153914737
70. 1722153914881
71. 1722153915037
72. 1722153915185
73. 1722153915341
74. 1722153915533
75. 1722153915689
76. 1722153915833
77. 1722153915993
78. 1722153916185
79. 1722153916341
80. 1722153916485
81. 1722153916645
82. 1722153916837
83. 1722153916993
84. 1722153917137
85. 1722153917293
86. 1722153917437
87. 1722153917597
88. 1722153917793
89. 1722153917945
90. 1722153918089
91. 1722153918245
92. 1722153918389
93. 1722153918549
94. 1722153918741
95. 1722153918897
96. 1722153919089
97. 1722153919249
98. 1722153919441
99. 1722153919601
100. 1722153919797
101. 1722153919949
102. 1722153920093
103. 1722153920253
104. 1722153920445
105. 1722153920605
106. 1722153920793
107. 1722153920957
108. 1722153921145
109. 1722153921305
110. 1722153921497
111. 1722153921653
112. 1722153921797
113. 1722153921953
114. 1722153922097
115. 1722153922257
116. 1722153922449
117. 1722153922605
118. 1722153922749
119. 1722153922905
120. 1722153923049
121. 1722153923209
122. 1722153923401
123. 1722153923557
124. 1722153923701
125. 1722153923857
126. 1722153924001
127. 1722153924161
128. 1722153924353
129. 1722153924509
130. 1722153924653
131. 1722153924809
132. 1722153924957
133. 1722153925117
134. 1722153925305
135. 1722153925461
136. 1722153925605
137. 1722153925761
138. 1722153925905
139. 1722153926065
140. 1722153926257
141. 1722153926413
142. 1722153926557
143. 1722153926717
144. 1722153926909
145. 1722153927065
146. 1722153927209
147. 1722153927365
148. 1722153927509
149. 1722153927665
150. 1722153927813
151. 1722153927965
152. 1722153928113
153. 1722153928265
154. 1722153928413
155. 1722153928569
156. 1722153928713
157. 1722153928869
158. 1722153929013
159. 1722153929169
160. 1722153929313
161. 1722153929469
162. 1722153929613
163. 1722153929769
164. 1722153929917
165. 1722153930069
166. 1722153930217
167. 1722153930373
168. 1722153930517
169. 1722153930673
170. 1722153930817
171. 1722153930977
172. 1722153931169
173. 1722153931325
174. 1722153931469
175. 1722153931629
176. 1722153931825
177. 1722153931973
178. 1722153932121
179. 1722153932277
180. 1722153932425
181. 1722153932577
182. 1722153932721
183. 1722153932877
184. 1722153933021
185. 1722153933177
186. 1722153933325
187. 1722153933477
188. 1722153933625
189. 1722153933777
190. 1722153933925
191. 1722153934077
192. 1722153934225
193. 1722153934381
194. 1722153934525
195. 1722153934681
196. 1722153934825
197. 1722153934981
198. 1722153935125
199. 1722153935281
200. 1722153935425
201. 1722153935581
202. 1722153935725
203. 1722153935881
204. 1722153936029
205. 1722153936185
206. 1722153936377
207. 1722153936537
208. 1722153936729
209. 1722153936885
210. 1722153937029
211. 1722153937185
212. 1722153937329
213. 1722153937485
214. 1722153937629
215. 1722153937785
216. 1722153937933
217. 1722153938089
218. 1722153938233
219. 1722153938389
220. 1722153938533
221. 1722153938689
222. 1722153938833
223. 1722153938989
224. 1722153939133
225. 1722153939289
226. 1722153939433
227. 1722153939593
228. 1722153939785
229. 1722153939941
230. 1722153940089
231. 1722153940245
232. 1722153940437
233. 1722153940593
234. 1722153940737
235. 1722153940893
236. 1722153941037
237. 1722153941197
238. 1722153941389
239. 1722153941545
