INITIAL
* 3:2pm Jul 28, 2024
* a0 vs a1
* 1 2 2 2 2 2 5 1 2 2 2 2 2 5
* X X X X
* X X X X
* X X X X
* X X X X
* X X X X
* X X X X
* X X X X
* X X X X
* first 1
* time 900
* 1. a8(g) d2(p)
* 2. c2(P) b2(m)
* 3. d6(c) b8(p)
* 4. c7(N) a6(R)
* 5. a2(P) b5(n)
* 6. b6(N) d1(K)
* 7. c1(r) c6(g)
* 8. c1-c2 a3(P)
* 9. b7(P) d7(k)
* 10. c5(G) c8(M)
* 11. d3(p) a5(C)
* 12. b5-a5 b3(m)
* 13. d8(M) d4(p)
* 14. b1(G) a7(R)
* 15. a8-a7 a4(r)
* 16. d2-d1 a6-a5
* 17. d6-b6 c8-b8
* 18. b6-a6 b8-a8
* 19. d7-c7 d8-c8
* 20. c3(c) a1(n)
* 21. c2-c1 c8-b8
* 22. b2-c2 c4(P)
* 23. a4-a3 a5-b5
* 24. a6-a8 b5-a5
* 25. a3-a2 b8-c8
* 26. a8-b8 b1-b2
* 27. a7-a8 b2-b3
* 28. c7-d7 b7-b6
* 29. a2-a3 a5-a6
* 30. d7-d6 a6-a5
* 31. b8-b7 c8-d8
* 32. d3-d2 d8-d7
* 33. c1-b1 b6-a6
* 34. d4-c4 a5-a4
* 35. c6-c7 a6-a5
* 36. c4-d4 c5-b5
* 37. d5(C) b3-c3
* 38. b1-b2 d5-d2
* 39. a3-a2 a5-a6
* 40. b7-b6 d2-b2
* 41. a8-a7 c3-d3
* 42. d6-c6 d3-d4
* 43. a7-a8 d7-d6
* 44. a2-a3 a4-a5
* 45. d1-d2 b4(p)
* 46. d2-d1 d6-d7
* 47. a3-a2 d7-d6
* 48. a2-b2 d4-d5
* 49. b4-a4 b5-c5
* 50. b2-a2 d6-d7
* 51. c6-d6 d7-d8
* 52. d6-d7 d8-c8
* 53. b6-b7 c5-c6
* 54. a1-b1 c6-c5
* 55. a2-a1 c8-b8
* 56. d1-c1 c5-c4
* 57. d7-d8 c4-c3
* 58. a4-a3 b8-b7
* 59. a8-b8 c3-c4
* 60. c7-c8 c4-d4
* 61. c2-d2 d5-d6
* 62. d8-d7 d4-d3
* 63. d2-d1 a6-a7
* 64. b8-a8 a7-a6
* 65. d1-d2 a6-b6
* 66. a3-a4 d3-d4
* 67. c8-c7 b6-a6
* 68. a4-b4 d6-d5
* 69. d2-c2 a5-a4
* 70. a8-b8 a6-a5
* 71. c2-d2 b7-a7
* 72. c1-d1 a7-b7
* 73. d2-d3 d5-c5
* 74. c7-b7 d4-d3
* 75. d7-d8 c5-c4
* 76. b8-c8 d3-c3
* 77. b4-b3 c4-d4
* 78. d8-d7 a5-b5
* 79. d7-c7 b5-a5
* 80. b3-b2 d4-d5
* 81. b7-b6 d5-d4
* 82. b6-b5 d4-d3
* 83. c8-b8 a4-b4
* 84. b5-b4 c3-c2
* 85. b1-c1 c2-d2
* 86. b4-c4 a5-a4
* 87. c4-c3 d2-c2
* 88. c3-d3 a4-a5
* 89. b8-a8 c2-d2
* 90. d3-c3 a5-b5
* 91. b2-c2 d2-c2
* 92. c1-b1 b5-b4
* 93. c7-d7 b4-c4
* 94. a1-a2 c2-c3
* 95. b1-c1 c3-c2
* 96. a2-a1 c4-b4
* 97. d7-d8 b4-c4
* 98. a8-b8 c2-c3
* 99. b8-b7 c4-c5
* 100. d8-c8 c3-b3
* 101. b7-b8 b3-b4
* 102. a1-b1 c5-c4
* 103. b8-a8 b4-b3
* 104. a8-a7 c4-c3
* 105. c8-d8 b3-b4
* 106. b1-a1 b4-a4
* 107. d1-d2 a4-a3
* 108. d2-c2 c3-c2
* 109. c1-d1 a3-a2
* 110. d1-c1 a2-b2
* 111. a7-a8 b2-a2
* 112. c1-c2 a2-a3
* 113. a1-b1 a3-b3
* 114. c2-d2 b3-b4
* 115. d2-d3 b4-b3
* 116. a8-a7 b3-b4
* 117. d3-c3 b4-a4
* 118. b1-c1 a4-b4
* 119. c1-c2 b4-a4
* 120. d8-c8 a4-b4
* 121. c2-d2 b4-a4
* 122. c8-d8 a4-a5
* 123. c3-b3 a5-a4
* 124. a7-b7 a4-a5
* 125. b7-a7 a5-b5
* 126. d8-d7 b5-b4
* 127. d7-c7 b4-c4
* 128. b3-c3 c4-c5
* 129. a7-b7 c5-c6
* 130. c3-c2 c6-c5
* 131. d2-d1 c5-c6
* 132. c2-c3 c6-b6
* 133. c3-d3 b6-c6
* 134. c7-c6
* NoMove a0 Wins 1.000000,0.000000
* Comment 0 0
0. 1722150125609
1. 1722150125609
2. 1722150125801
3. 1722150125953
4. 1722150126105
5. 1722150126257
6. 1722150126401
7. 1722150126553
8. 1722150126705
9. 1722150126853
10. 1722150127001
11. 1722150127153
12. 1722150127301
13. 1722150127453
14. 1722150127605
15. 1722150127757
16. 1722150127905
17. 1722150128057
18. 1722150128209
19. 1722150128357
20. 1722150128505
21. 1722150128661
22. 1722150128805
23. 1722150128957
24. 1722150129109
25. 1722150129261
26. 1722150129413
27. 1722150129561
28. 1722150129713
29. 1722150129865
30. 1722150130009
31. 1722150130161
32. 1722150130309
33. 1722150130461
34. 1722150130613
35. 1722150130765
36. 1722150130917
37. 1722150131065
38. 1722150131213
39. 1722150131365
40. 1722150131517
41. 1722150131669
42. 1722150131813
43. 1722150131965
44. 1722150132113
45. 1722150132265
46. 1722150132417
47. 1722150132565
48. 1722150132717
49. 1722150132873
50. 1722150133017
51. 1722150133169
52. 1722150133321
53. 1722150133473
54. 1722150133617
55. 1722150133769
56. 1722150133917
57. 1722150134069
58. 1722150134221
59. 1722150134373
60. 1722150134525
61. 1722150134669
62. 1722150134821
63. 1722150134973
64. 1722150135121
65. 1722150135273
66. 1722150135421
67. 1722150135577
68. 1722150135725
69. 1722150135873
70. 1722150136025
71. 1722150136177
72. 1722150136325
73. 1722150136477
74. 1722150136625
75. 1722150136777
76. 1722150136925
77. 1722150137077
78. 1722150137229
79. 1722150137377
80. 1722150137529
81. 1722150137677
82. 1722150137829
83. 1722150137981
84. 1722150138129
85. 1722150138281
86. 1722150138429
87. 1722150138581
88. 1722150138729
89. 1722150138881
90. 1722150139033
91. 1722150139181
92. 1722150139333
93. 1722150139485
94. 1722150139637
95. 1722150139789
96. 1722150139937
97. 1722150140089
98. 1722150140233
99. 1722150140385
100. 1722150140533
101. 1722150140685
102. 1722150140841
103. 1722150140989
104. 1722150141137
105. 1722150141289
106. 1722150141437
107. 1722150141593
108. 1722150141737
109. 1722150141889
110. 1722150142037
111. 1722150142189
112. 1722150142337
113. 1722150142489
114. 1722150142645
115. 1722150142793
116. 1722150142941
117. 1722150143097
118. 1722150143245
119. 1722150143393
120. 1722150143541
121. 1722150143697
122. 1722150143841
123. 1722150143993
124. 1722150144141
125. 1722150144297
126. 1722150144449
127. 1722150144593
128. 1722150144749
129. 1722150144897
130. 1722150145045
131. 1722150145201
132. 1722150145345
133. 1722150145497
134. 1722150145649
135. 1722150145797
136. 1722150145945
137. 1722150146101
138. 1722150146249
139. 1722150146397
140. 1722150146549
141. 1722150146701
142. 1722150146849
143. 1722150147001
144. 1722150147149
145. 1722150147301
146. 1722150147449
147. 1722150147605
148. 1722150147749
149. 1722150147901
150. 1722150148053
151. 1722150148201
152. 1722150148353
153. 1722150148501
154. 1722150148653
155. 1722150148805
156. 1722150148953
157. 1722150149105
158. 1722150149253
159. 1722150149405
160. 1722150149553
161. 1722150149705
162. 1722150149857
163. 1722150150005
164. 1722150150157
165. 1722150150305
166. 1722150150457
167. 1722150150609
168. 1722150150757
169. 1722150150909
170. 1722150151057
171. 1722150151209
172. 1722150151357
173. 1722150151509
174. 1722150151661
175. 1722150151809
176. 1722150151961
177. 1722150152109
178. 1722150152261
179. 1722150152409
180. 1722150152561
181. 1722150152717
182. 1722150152865
183. 1722150153013
184. 1722150153161
185. 1722150153313
186. 1722150153465
187. 1722150153617
188. 1722150153765
189. 1722150153913
190. 1722150154065
191. 1722150154213
192. 1722150154365
193. 1722150154513
194. 1722150154665
195. 1722150154817
196. 1722150154965
197. 1722150155117
198. 1722150155265
199. 1722150155417
200. 1722150155569
201. 1722150155717
202. 1722150155869
203. 1722150156017
204. 1722150156169
205. 1722150156317
206. 1722150156469
207. 1722150156621
208. 1722150156769
209. 1722150156921
210. 1722150157069
211. 1722150157221
212. 1722150157373
213. 1722150157521
214. 1722150157677
215. 1722150157821
216. 1722150157973
217. 1722150158125
218. 1722150158273
219. 1722150158425
220. 1722150158573
221. 1722150158729
222. 1722150158873
223. 1722150159029
224. 1722150159173
225. 1722150159325
226. 1722150159473
227. 1722150159629
228. 1722150159777
229. 1722150159929
230. 1722150160077
231. 1722150160229
232. 1722150160377
233. 1722150160529
234. 1722150160677
235. 1722150160829
236. 1722150160981
237. 1722150161129
238. 1722150161281
239. 1722150161433
240. 1722150161581
241. 1722150161733
242. 1722150161881
243. 1722150162037
244. 1722150162181
245. 1722150162333
246. 1722150162481
247. 1722150162633
248. 1722150162785
249. 1722150162933
250. 1722150163085
251. 1722150163237
252. 1722150163385
253. 1722150163537
254. 1722150163685
255. 1722150163837
256. 1722150163985
257. 1722150164137
258. 1722150164285
259. 1722150164437
260. 1722150164589
261. 1722150164741
262. 1722150164889
263. 1722150165041
264. 1722150165189
265. 1722150165341
266. 1722150165493
267. 1722150165641
