INITIAL
* 4:22pm Jul 28, 2024
* a1 vs a0
* 1 2 2 2 2 2 5 1 2 2 2 2 2 5
* X X X X
* X X X X
* X X X X
* X X X X
* X X X X
* X X X X
* X X X X
* X X X X
* first 1
* time 900
* 1. a1(n) b4(c)
* 2. c7(G) b3(r)
* 3. a7(P) c8(p)
* 4. d3(c) c6(p)
* 5. d2(g) c7-c6
* 6. b2(P) a2(k)
* 7. c1(M) a3(m)
* 8. d4(p) c4(C)
* 9. d7(R) a6(N)
* 10. d1(P) a8(P)
* 11. d5(n) b1(G)
* 12. b7(P) b8(C)
* 13. b6(r) b7-c7
* 14. d6(M) b2-a2
* 15. d8(m) a7-b7
* 16. c3(p) b1-b2
* 17. b4-b2 a4(K)
* 18. a5(p) a6-a7
* 19. b2-b1 a4-a3
* 20. c2(R) a3-a4
* 21. d2-d1 a2-b2
* 22. a5-a4 c4-b4
* 23. d8-d7 b8-b6
* 24. d7-d8 c2-d2
* 25. b3-b2 d2-d3
* 26. b2-a2 b6-a6
* 27. b1-b2 a6-a5
* 28. c5(g) c6-c5
* 29. a1-b1 d3-d4
* 30. c3-d3 b5(N)
* 31. b2-b3 d6-d5
* 32. b1-b2 b4-b2
* 33. a4-a3 a7-a6
* 34. d1-d2 c7-c8
* 35. d2-d1 c5-c4
* 36. a2-b2 b7-b8
* 37. b2-b1 a8-a7
* 38. d3-c3 d5-c5
* 39. d8-d7 c5-d5
* 40. b3-b8 d4-d3
* 41. d7-d8 c4-b4
* 42. b1-a1 d3-d4
* 43. b8-a8 a6-b6
* 44. c3-d3 c1-c2
* 45. a8-b8 a5-a1
* 46. a3-a4 d5-d6
* 47. d1-d2 d6-d5
* 48. b8-a8 a7-b7
* 49. a4-a5 b5-c5
* 50. a5-a4 c5-c4
* 51. a8-a7 c8-c7
* 52. a4-a5 d5-c5
* 53. a7-c7 b7-a7
* 54. c7-d7 b6-a6
* 55. d3-c3 b4-b3
* 56. d2-c2 b3-a3
* 57. c2-c1 a1-a5
* 58. c3-c2 a6-b6
* 59. d8-c8 c5-c6
* 60. c1-d1 a3-b3
* 61. c2-c3 b3-b2
* 62. c8-c7 b2-a2
* 63. d7-a7 a5-b5
* 64. a7-b7 b5-b7
* 65. d1-c1 c6-d6
* 66. c7-b7 b6-b5
* 67. b7-a7 a2-b2
* 68. c3-b3 b2-b3
* 69. c1-d1 b3-b4
* 70. d1-d2 c4-c5
* 71. d2-d1 d6-d7
* 72. a7-b7 b5-a5
* 73. d1-c1 d7-c7
* 74. c1-c2 c5-d5
* 75. c2-d2 d5-d6
* 76. d2-d3 c7-b7
* 77. d3-d4 b4-b5
* 78. d4-d5 b5-b6
* 79. d5-c5 b6-a6
* 80. c5-d5 a5-b5
* 81. d5-c5 a6-a5
* 82. c5-c6 a5-a4
* 83. c6-c7 d6-d5
* 84. c7-d7 a4-a5
* 85. d7-d8 b7-b6
* 86. d8-c8 b6-a6
* 87. c8-d8 d5-c5
* 88. d8-c8 b5-b6
* 89. c8-c7 b6-c6
* 90. c7-c8 c6-d6
* 91. c8-b8 c5-d5
* 92. b8-a8 d5-c5
* 93. a8-b8 d6-d7
* 94. b8-b7 d7-c7
* 95. b7-b8 c5-c4
* 96. b8-b7 c4-b4
* 97. b7-a7 b4-c4
* 98. a7-b7 c7-d7
* 99. b7-b6 c4-c5
* 100. b6-b7 d7-d8
* 101. b7-b8 c5-c6
* 102. b8-c8 a5-a4
* 103. c8-c7 c6-c5
* 104. c7-d7 c5-c6
* 105. d7-d8 c6-c7
* 106. d8-c8 a6-a7
* 107. c8-d8 c7-c8
* 108. d8-c8 a4-a3
* 109. c8-c7 a7-a8
* 110. c7-b7 a3-a2
* 111. b7-b6 a2-a1
* 112. b6-c6 a1-a2
* 113. c6-c7 a2-b2
* 114. c7-d7 b2-a2
* 115. d7-d8 a2-b2
* 116. d8-c8 a8-a7
* 117. c8-b8 a7-a8
* 118. b8-a8 b2-b3
* 119. a8-a7 b3-a3
* 120. a7-a6 a3-a2
* 121. a6-b6 a2-b2
* 122. b6-b7 b2-b3
* 123. b7-a7 b3-b2
* 124. a7-a8 b2-b3
* 125. a8-b8 b3-b4
* 126. b8-b7 b4-b3
* 127. b7-a7 b3-b4
* 128. a7-a6 b4-b3
* 129. a6-a5 b3-b4
* 130. a5-a4 b4-b3
* 131. a4-a5 b3-b2
* 132. a5-b5 b2-a2
* 133. b5-b6 a2-a1
* 134. b6-b5 a1-b1
* 135. b5-b4 b1-a1
* 136. b4-b3 a1-b1
* 137. b3-b2 b1-b2
* NoMove a0 Wins 0.000000,1.000000
* Comment 0 0
0. 1722154951200
1. 1722154951200
2. 1722154951385
3. 1722154951545
4. 1722154951737
5. 1722154951893
6. 1722154952041
7. 1722154952193
8. 1722154952337
9. 1722154952497
10. 1722154952689
11. 1722154952845
12. 1722154952989
13. 1722154953145
14. 1722154953289
15. 1722154953445
16. 1722154953589
17. 1722154953749
18. 1722154953941
19. 1722154954101
20. 1722154954297
21. 1722154954453
22. 1722154954645
23. 1722154954801
24. 1722154954997
25. 1722154955149
26. 1722154955293
27. 1722154955449
28. 1722154955593
29. 1722154955753
30. 1722154955945
31. 1722154956101
32. 1722154956245
33. 1722154956401
34. 1722154956545
35. 1722154956701
36. 1722154956849
37. 1722154957005
38. 1722154957197
39. 1722154957353
40. 1722154957497
41. 1722154957653
42. 1722154957801
43. 1722154957953
44. 1722154958101
45. 1722154958253
46. 1722154958401
47. 1722154958557
48. 1722154958701
49. 1722154958857
50. 1722154959001
51. 1722154959157
52. 1722154959305
53. 1722154959457
54. 1722154959605
55. 1722154959761
56. 1722154959905
57. 1722154960057
58. 1722154960205
59. 1722154960357
60. 1722154960505
61. 1722154960657
62. 1722154960805
63. 1722154960957
64. 1722154961113
65. 1722154961261
66. 1722154961409
67. 1722154961561
68. 1722154961713
69. 1722154961861
70. 1722154962009
71. 1722154962161
72. 1722154962309
73. 1722154962461
74. 1722154962617
75. 1722154962761
76. 1722154962917
77. 1722154963061
78. 1722154963213
79. 1722154963361
80. 1722154963513
81. 1722154963661
82. 1722154963813
83. 1722154963969
84. 1722154964113
85. 1722154964265
86. 1722154964413
87. 1722154964565
88. 1722154964717
89. 1722154964865
90. 1722154965017
91. 1722154965165
92. 1722154965317
93. 1722154965469
94. 1722154965617
95. 1722154965769
96. 1722154965917
97. 1722154966069
98. 1722154966217
99. 1722154966369
100. 1722154966521
101. 1722154966669
102. 1722154966825
103. 1722154966973
104. 1722154967121
105. 1722154967269
106. 1722154967421
107. 1722154967573
108. 1722154967721
109. 1722154967873
110. 1722154968021
111. 1722154968173
112. 1722154968321
113. 1722154968473
114. 1722154968625
115. 1722154968773
116. 1722154968929
117. 1722154969073
118. 1722154969225
119. 1722154969377
120. 1722154969525
121. 1722154969673
122. 1722154969825
123. 1722154969977
124. 1722154970125
125. 1722154970281
126. 1722154970429
127. 1722154970577
128. 1722154970729
129. 1722154970877
130. 1722154971029
131. 1722154971177
132. 1722154971329
133. 1722154971481
134. 1722154971629
135. 1722154971781
136. 1722154971929
137. 1722154972081
138. 1722154972233
139. 1722154972381
140. 1722154972533
141. 1722154972681
142. 1722154972833
143. 1722154972981
144. 1722154973133
145. 1722154973281
146. 1722154973437
147. 1722154973581
148. 1722154973737
149. 1722154973885
150. 1722154974037
151. 1722154974185
152. 1722154974337
153. 1722154974485
154. 1722154974641
155. 1722154974785
156. 1722154974941
157. 1722154975085
158. 1722154975245
159. 1722154975437
160. 1722154975589
161. 1722154975737
162. 1722154975893
163. 1722154976037
164. 1722154976193
165. 1722154976337
166. 1722154976493
167. 1722154976637
168. 1722154976793
169. 1722154976937
170. 1722154977093
171. 1722154977237
172. 1722154977397
173. 1722154977589
174. 1722154977745
175. 1722154977889
176. 1722154978045
177. 1722154978189
178. 1722154978349
179. 1722154978541
180. 1722154978697
181. 1722154978841
182. 1722154979001
183. 1722154979193
184. 1722154979349
185. 1722154979493
186. 1722154979653
187. 1722154979849
188. 1722154980001
189. 1722154980193
190. 1722154980353
191. 1722154980545
192. 1722154980705
193. 1722154980897
194. 1722154981057
195. 1722154981249
196. 1722154981405
197. 1722154981597
198. 1722154981757
199. 1722154981945
200. 1722154982109
201. 1722154982297
202. 1722154982461
203. 1722154982649
204. 1722154982813
205. 1722154982997
206. 1722154983161
207. 1722154983349
208. 1722154983513
209. 1722154983705
210. 1722154983865
211. 1722154984049
212. 1722154984213
213. 1722154984401
214. 1722154984565
215. 1722154984757
216. 1722154984917
217. 1722154985105
218. 1722154985269
219. 1722154985453
220. 1722154985617
221. 1722154985805
222. 1722154985969
223. 1722154986157
224. 1722154986321
225. 1722154986505
226. 1722154986669
227. 1722154986857
228. 1722154987021
229. 1722154987213
230. 1722154987373
231. 1722154987557
232. 1722154987721
233. 1722154987909
234. 1722154988073
235. 1722154988257
236. 1722154988425
237. 1722154988609
238. 1722154988777
239. 1722154988961
240. 1722154989125
241. 1722154989317
242. 1722154989477
243. 1722154989661
244. 1722154989829
245. 1722154990013
246. 1722154990177
247. 1722154990365
248. 1722154990529
249. 1722154990713
250. 1722154990881
251. 1722154991065
252. 1722154991237
253. 1722154991417
254. 1722154991581
255. 1722154991769
256. 1722154991933
257. 1722154992117
258. 1722154992289
259. 1722154992473
260. 1722154992633
261. 1722154992821
262. 1722154992989
263. 1722154993169
264. 1722154993337
265. 1722154993521
266. 1722154993689
267. 1722154993873
268. 1722154994041
269. 1722154994225
270. 1722154994393
271. 1722154994577
272. 1722154994745
273. 1722154994925
274. 1722154995089
