INITIAL
* 3:11pm Jul 28, 2024
* a0 vs a1
* 1 2 2 2 2 2 5 1 2 2 2 2 2 5
* X X X X
* X X X X
* X X X X
* X X X X
* X X X X
* X X X X
* X X X X
* X X X X
* first 1
* time 900
* 1. a8(c) b5(R)
* 2. c3(m) d4(n)
* 3. b3(P) a4(N)
* 4. d7(R) a6(k)
* 5. c8(m) a1(g)
* 6. a2(n) c6(N)
* 7. c2(P) d3(M)
* 8. c1(g) d6(P)
* 9. c1-c2 d8(G)
* 10. a5(K) c5(C)
* 11. b4(M) d2(r)
* 12. b8(p) d3-d4
* 13. b6(P) a3(p)
* 14. d1(p) a7(c)
* 15. d5(G) b3-a3
* 16. a6-a5 b2(r)
* 17. c4(p) b1(p)
* 18. b1-c1 b7(C)
* 19. a5-a6 c5-c3
* 20. a1-b1 d4-d3
* 21. a2-a1 c3-b3
* 22. c4-c3 c7(P)
* 23. c8-c7 d5-d4
* 24. c7-c8 b5-a5
* 25. c3-c4 a5-b5
* 26. a1-a2 d3-c3
* 27. a2-a3 c3-d3
* 28. a6-a5 b4-c4
* 29. a3-b3 a4-a3
* 30. a7-a3 c6-c5
* 31. b3-b4 b7-c7
* 32. b8-b7 d8-c8
* 33. b2-b3 d3-c3
* 34. b7-a7 b6-b7
* 35. c2-b2 c3-c2
* 36. b2-a2 c2-c3
* 37. a3-a4 c5-c6
* 38. b1-a1 b7-a7
* 39. a2-a3 a7-b7
* 40. d2-c2 c4-c5
* 41. a1-b1 b5-b4
* 42. c2-d2 b7-b8
* 43. a5-b5 c6-b6
* 44. b3-b4 b6-b7
* 45. b4-c4 c8-d8
* 46. a8-a7 c5-c6
* 47. b1-b2 b8-a8
* 48. d2-c2 d4-d3
* 49. c2-d2 b7-a7
* 50. c1-c2 d8-c8
* 51. a4-a8 c8-d8
* 52. b2-b1 c6-c5
* 53. c2-b2 c3-c4
* 54. b1-c1 c5-c6
* 55. b5-b4 c7-c8
* 56. a3-b3 d6-d5
* 57. c1-c2 a7-a8
* 58. b2-a2 a8-b8
* 59. b4-a4 c6-d6
* 60. a4-a5 d7-c7
* 61. b3-b2 c4-c3
* 62. b2-b3 d6-d7
* 63. a5-b5 d3-d2
* 64. b5-a5 c3-d3
* 65. c2-c3 c7-c6
* 66. a5-b5 d5-d4
* 67. c3-c2 b8-b7
* 68. a2-b2 b7-b8
* 69. c2-c1 c8-c1
* 70. b5-b6 d2-d1
* 71. b3-b4 b8-a8
* 72. b2-b1 d3-c3
* 73. b4-a4 c6-d6
* 74. a4-a5 d4-d3
* 75. a5-a4 c1-c2
* 76. b6-b7 d1-c1
* 77. a4-a3 d7-c7
* 78. b7-a7 c1-d1
* 79. b1-a1 d1-c1
* 80. a7-b7 d3-d4
* 81. b7-c7 d6-c6
* 82. c7-c8 c2-d2
* 83. a3-a2 d2-d3
* 84. a2-b2 c3-b3
* 85. b2-b1 c6-c7
* 86. a1-a2 b3-a3
* 87. b1-b2 a3-b3
* 88. b2-c2 d8-d7
* 89. c2-c3 b3-b4
* 90. c8-c7 b4-b5
* 91. c3-c2 c1-b1
* 92. c7-c8 d4-c4
* 93. c2-c1 b1-c1
* 94. a2-a3 a8-b8
* 95. a3-b3 d7-d6
* 96. b3-b4 d3-c3
* 97. c8-d8 b8-b7
* 98. b4-c4 b5-b4
* 99. d8-c8 b4-b3
* 100. c8-c7 c3-c7
* 101. c4-c3 d6-d5
* 102. c3-d3 b3-c3
* 103. d3-d4 b7-b6
* 104. d4-c4 c3-b3
* 105. c4-c3 d5-d4
* 106. c3-c4 c7-c8
* 107. c4-c3 b3-c3
* NoMove a1 Wins 0.000000,1.000000
* Comment 0 0
0. 1722150709011
1. 1722150709011
2. 1722150709197
3. 1722150709353
4. 1722150709497
5. 1722150709653
6. 1722150709801
7. 1722150709957
8. 1722150710149
9. 1722150710305
10. 1722150710449
11. 1722150710609
12. 1722150710801
13. 1722150710957
14. 1722150711101
15. 1722150711265
16. 1722150711457
17. 1722150711613
18. 1722150711801
19. 1722150711961
20. 1722150712153
21. 1722150712313
22. 1722150712505
23. 1722150712665
24. 1722150712853
25. 1722150713013
26. 1722150713209
27. 1722150713365
28. 1722150713557
29. 1722150713717
30. 1722150713905
31. 1722150714065
32. 1722150714261
33. 1722150714417
34. 1722150714609
35. 1722150714769
36. 1722150714957
37. 1722150715117
38. 1722150715309
39. 1722150715469
40. 1722150715661
41. 1722150715821
42. 1722150716009
43. 1722150716173
44. 1722150716361
45. 1722150716525
46. 1722150716713
47. 1722150716873
48. 1722150717065
49. 1722150717225
50. 1722150717413
51. 1722150717577
52. 1722150717765
53. 1722150717925
54. 1722150718117
55. 1722150718277
56. 1722150718465
57. 1722150718625
58. 1722150718817
59. 1722150718977
60. 1722150719169
61. 1722150719329
62. 1722150719521
63. 1722150719677
64. 1722150719869
65. 1722150720033
66. 1722150720221
67. 1722150720381
68. 1722150720573
69. 1722150720733
70. 1722150720921
71. 1722150721081
72. 1722150721273
73. 1722150721433
74. 1722150721625
75. 1722150721785
76. 1722150721973
77. 1722150722133
78. 1722150722325
79. 1722150722485
80. 1722150722681
81. 1722150722837
82. 1722150723029
83. 1722150723189
84. 1722150723377
85. 1722150723537
86. 1722150723729
87. 1722150723889
88. 1722150724081
89. 1722150724241
90. 1722150724429
91. 1722150724589
92. 1722150724781
93. 1722150724941
94. 1722150725133
95. 1722150725293
96. 1722150725485
97. 1722150725641
98. 1722150725833
99. 1722150725993
100. 1722150726185
101. 1722150726345
102. 1722150726537
103. 1722150726701
104. 1722150726885
105. 1722150727045
106. 1722150727241
107. 1722150727397
108. 1722150727593
109. 1722150727749
110. 1722150727937
111. 1722150728097
112. 1722150728289
113. 1722150728449
114. 1722150728641
115. 1722150728801
116. 1722150728989
117. 1722150729149
118. 1722150729345
119. 1722150729501
120. 1722150729697
121. 1722150729853
122. 1722150730041
123. 1722150730201
124. 1722150730393
125. 1722150730553
126. 1722150730745
127. 1722150730901
128. 1722150731045
129. 1722150731205
130. 1722150731397
131. 1722150731553
132. 1722150731697
133. 1722150731853
134. 1722150731997
135. 1722150732157
136. 1722150732349
137. 1722150732505
138. 1722150732649
139. 1722150732809
140. 1722150733001
141. 1722150733157
142. 1722150733349
143. 1722150733509
144. 1722150733705
145. 1722150733861
146. 1722150734053
147. 1722150734209
148. 1722150734353
149. 1722150734513
150. 1722150734705
151. 1722150734861
152. 1722150735005
153. 1722150735161
154. 1722150735305
155. 1722150735461
156. 1722150735605
157. 1722150735765
158. 1722150735957
159. 1722150736113
160. 1722150736257
161. 1722150736413
162. 1722150736557
163. 1722150736717
164. 1722150736909
165. 1722150737065
166. 1722150737213
167. 1722150737373
168. 1722150737561
169. 1722150737721
170. 1722150737909
171. 1722150738073
172. 1722150738261
173. 1722150738421
174. 1722150738613
175. 1722150738769
176. 1722150738913
177. 1722150739073
178. 1722150739265
179. 1722150739425
180. 1722150739617
181. 1722150739773
182. 1722150739965
183. 1722150740129
184. 1722150740317
185. 1722150740473
186. 1722150740665
187. 1722150740825
188. 1722150741017
189. 1722150741173
190. 1722150741317
191. 1722150741477
192. 1722150741669
193. 1722150741825
194. 1722150741969
195. 1722150742125
196. 1722150742269
197. 1722150742425
198. 1722150742569
199. 1722150742733
200. 1722150742921
201. 1722150743077
202. 1722150743221
203. 1722150743377
204. 1722150743521
205. 1722150743681
206. 1722150743873
207. 1722150744029
208. 1722150744173
209. 1722150744329
210. 1722150744473
211. 1722150744629
212. 1722150744777
213. 1722150744933
214. 1722150745081
