INITIAL
* 3:18pm Jul 28, 2024
* a1 vs a0
* 1 2 2 2 2 2 5 1 2 2 2 2 2 5
* X X X X
* X X X X
* X X X X
* X X X X
* X X X X
* X X X X
* X X X X
* X X X X
* first 0
* time 900
* 1. b1(C) b4(P)
* 2. c7(p) b3(G)
* 3. d3(C) c6(g)
* 4. b7(c) c4(N)
* 5. c2(R) a7(M)
* 6. a1(c) c1(P)
* 7. a3(m) b2(p)
* 8. a6(G) d2(m)
* 9. d5(R) d6(p)
* 10. c5(g) a2(r)
* 11. b5(P) d2-d3
* 12. b8(r) d1(p)
* 13. d7(n) a5(k)
* 14. d5-d6 a5-a6
* 15. c3(n) b6(p)
* 16. c2-b2 b6-b5
* 17. a4(N) c3-c4
* 18. c1-d1 b7-b4
* 19. d1-d2 c6-b6
* 20. a4-a5 d3-c3
* 21. b3-b4 c3-d3
* 22. a8(P) d3-c3
* 23. b4-a4 b8-a8
* 24. c8(P) c5-c6
* 25. d2-d1 a3-b3
* 26. d6-d7 c4-c5
* 27. c8-b8 a1-a4
* 28. b8-c8 a4-a3
* 29. d1-d2 b3-b2
* 30. d2-d3 a6-a7
* 31. a5-a6 a7-b7
* 32. c8-c7 c5-d5
* 33. d3-d2 d5-c5
* 34. d4(M) c3-c4
* 35. a6-a7 b5-b4
* 36. d7-d6 b4-b5
* 37. d4-c4 a8-b8
* 38. c4-b4 b7-a7
* 39. c7-c8 b6-b7
* 40. d6-d7 a3-b3
* 41. b4-b3 b5-b4
* 42. d7-d6 c6-c7
* 43. d2-c2 b8-c8
* 44. d8(K) a2-a1
* 45. d6-c6 a7-a8
* 46. c6-d6 b4-c4
* 47. d8-c8 b7-b8
* 48. c8-b8 a8-b8
* 49. b3-b4 c5-b5
* 50. b1-c1 c4-c3
* 51. b4-b5 b2-a2
* 52. b5-b6 c7-d7
* 53. c1-b1 a1-b1
* 54. d6-d5 b1-b2
* 55. c2-c3 b8-b7
* 56. b6-a6 d7-c7
* 57. c3-c2 b7-b8
* 58. d5-c5 b2-b3
* 59. a6-b6 b8-c8
* 60. b6-c6 a2-b2
* 61. c5-c4 b3-b4
* 62. c2-d2 b2-c2
* 63. c4-d4 c7-c6
* 64. d4-c4 c8-b8
* 65. c4-d4 c6-b6
* 66. d2-d1 b6-b7
* 67. d1-d2 b7-a7
* 68. d4-d3 c2-c3
* 69. d2-d1 b4-a4
* 70. d1-c1 a4-a5
* 71. c1-b1 c3-c2
* 72. b1-c1 a5-a4
* 73. d3-d2 a4-a5
* 74. d2-d3 a5-a4
* 75. c1-b1 a7-a8
* 76. b1-a1 c2-c3
* 77. d3-d2 b8-c8
* 78. d2-d3 c3-c2
* 79. a1-a2 a8-b8
* 80. a2-b2 c8-d8
* 81. d3-c3 c2-c3
* 82. b2-b3 a4-a5
* 83. b3-a3 a5-a6
* 84. a3-b3 a6-a5
* 85. b3-b4 c3-d3
* 86. b4-c4 d8-c8
* 87. c4-c3 b8-a8
* 88. c3-c4 d3-d2
* 89. c4-b4 a8-b8
* 90. b4-a4 d2-d1
* 91. a4-a3 c8-c7
* 92. a3-b3 a5-a6
* 93. b3-c3 c7-d7
* 94. c3-b3 d7-c7
* 95. b3-a3 c7-c8
* 96. a3-a4 a6-b6
* 97. a4-a5 c8-d8
* 98. a5-b5 d8-c8
* 99. b5-c5 b8-a8
* 100. c5-b5 d1-c1
* 101. b5-b4 b6-b7
* 102. b4-b3 c8-d8
* 103. b3-a3 c1-d1
* 104. a3-b3 d8-c8
* 105. b3-b2 b7-b6
* 106. b2-b3 c8-d8
* 107. b3-b4 d1-d2
* 108. b4-b3 d2-d3
* 109. b3-c3 d3-d4
* 110. c3-c4 d4-d3
* 111. c4-c5 b6-b5
* 112. c5-d5 a8-a7
* 113. d5-d4 a7-b7
* 114. d4-d5 d3-d2
* 115. d5-d4 b5-b4
* 116. d4-c4 b7-c7
* 117. c4-c3 b4-b5
* 118. c3-d3 d2-d1
* 119. d3-d2 c7-b7
* 120. d2-c2 d8-d7
* 121. c2-c3 d7-d6
* 122. c3-c2 d1-c1
* 123. c2-d2 b5-b4
* 124. d2-d1 d6-c6
* 125. d1-d2 c6-c7
* 126. d2-d3 b4-b5
* 127. d3-d2 c7-d7
* 128. d2-d3 b7-b8
* 129. d3-d4 b5-c5
* 130. d4-d3 c5-b5
* 131. d3-d4 b5-a5
* 132. d4-d3 b8-c8
* 133. d3-d2 c1-d1
* 134. d2-c2 c8-c7
* 135. c2-c1 d1-c1
* NoMove a0 Wins 0.000000,1.000000
* Comment 0 0
0. 1722151098052
1. 1722151098052
2. 1722151098237
3. 1722151098397
4. 1722151098589
5. 1722151098745
6. 1722151098889
7. 1722151099045
8. 1722151099189
9. 1722151099345
10. 1722151099489
11. 1722151099649
12. 1722151099841
13. 1722151099997
14. 1722151100141
15. 1722151100297
16. 1722151100441
17. 1722151100601
18. 1722151100793
19. 1722151100949
20. 1722151101093
21. 1722151101249
22. 1722151101393
23. 1722151101553
24. 1722151101745
25. 1722151101905
26. 1722151102093
27. 1722151102253
28. 1722151102445
29. 1722151102605
30. 1722151102797
31. 1722151102953
32. 1722151103097
33. 1722151103257
34. 1722151103449
35. 1722151103605
36. 1722151103753
37. 1722151103909
38. 1722151104101
39. 1722151104257
40. 1722151104449
41. 1722151104609
42. 1722151104801
43. 1722151104961
44. 1722151105149
45. 1722151105313
46. 1722151105505
47. 1722151105661
48. 1722151105857
49. 1722151106013
50. 1722151106205
51. 1722151106365
52. 1722151106557
53. 1722151106717
54. 1722151106909
55. 1722151107065
56. 1722151107257
57. 1722151107413
58. 1722151107605
59. 1722151107765
60. 1722151107957
61. 1722151108117
62. 1722151108309
63. 1722151108469
64. 1722151108657
65. 1722151108817
66. 1722151109013
67. 1722151109169
68. 1722151109365
69. 1722151109521
70. 1722151109709
71. 1722151109869
72. 1722151110061
73. 1722151110225
74. 1722151110413
75. 1722151110573
76. 1722151110769
77. 1722151110921
78. 1722151111113
79. 1722151111273
80. 1722151111465
81. 1722151111625
82. 1722151111817
83. 1722151111973
84. 1722151112165
85. 1722151112325
86. 1722151112517
87. 1722151112681
88. 1722151112869
89. 1722151113029
90. 1722151113217
91. 1722151113377
92. 1722151113569
93. 1722151113729
94. 1722151113921
95. 1722151114081
96. 1722151114269
97. 1722151114429
98. 1722151114621
99. 1722151114781
100. 1722151114973
101. 1722151115133
102. 1722151115325
103. 1722151115485
104. 1722151115677
105. 1722151115833
106. 1722151116025
107. 1722151116185
108. 1722151116377
109. 1722151116533
110. 1722151116677
111. 1722151116837
112. 1722151117033
113. 1722151117185
114. 1722151117377
115. 1722151117537
116. 1722151117729
117. 1722151117889
118. 1722151118081
119. 1722151118241
120. 1722151118429
121. 1722151118589
122. 1722151118781
123. 1722151118945
124. 1722151119133
125. 1722151119289
126. 1722151119433
127. 1722151119593
128. 1722151119785
129. 1722151119941
130. 1722151120085
131. 1722151120241
132. 1722151120389
133. 1722151120541
134. 1722151120685
135. 1722151120849
136. 1722151121037
137. 1722151121193
138. 1722151121341
139. 1722151121497
140. 1722151121689
141. 1722151121849
142. 1722151122037
143. 1722151122197
144. 1722151122389
145. 1722151122549
146. 1722151122741
147. 1722151122897
148. 1722151123041
149. 1722151123197
150. 1722151123341
151. 1722151123501
152. 1722151123693
153. 1722151123849
154. 1722151123997
155. 1722151124153
156. 1722151124345
157. 1722151124501
158. 1722151124693
159. 1722151124853
160. 1722151125045
161. 1722151125205
162. 1722151125397
163. 1722151125553
164. 1722151125745
165. 1722151125905
166. 1722151126097
167. 1722151126257
168. 1722151126449
169. 1722151126605
170. 1722151126749
171. 1722151126913
172. 1722151127101
173. 1722151127261
174. 1722151127449
175. 1722151127613
176. 1722151127805
177. 1722151127961
178. 1722151128153
179. 1722151128309
180. 1722151128453
181. 1722151128609
182. 1722151128753
183. 1722151128913
184. 1722151129105
185. 1722151129261
186. 1722151129453
187. 1722151129613
188. 1722151129809
189. 1722151129965
190. 1722151130157
191. 1722151130313
192. 1722151130457
193. 1722151130617
194. 1722151130805
195. 1722151130965
196. 1722151131157
197. 1722151131317
198. 1722151131509
199. 1722151131665
200. 1722151131809
201. 1722151131969
202. 1722151132161
203. 1722151132317
204. 1722151132461
205. 1722151132617
206. 1722151132765
207. 1722151132917
208. 1722151133061
209. 1722151133221
210. 1722151133413
211. 1722151133569
212. 1722151133713
213. 1722151133873
214. 1722151134065
215. 1722151134221
216. 1722151134365
217. 1722151134525
218. 1722151134717
219. 1722151134873
220. 1722151135017
221. 1722151135173
222. 1722151135317
223. 1722151135473
224. 1722151135617
225. 1722151135777
226. 1722151135969
227. 1722151136125
228. 1722151136269
229. 1722151136425
230. 1722151136569
231. 1722151136725
232. 1722151136873
233. 1722151137025
234. 1722151137173
235. 1722151137325
236. 1722151137473
237. 1722151137625
238. 1722151137773
239. 1722151137925
240. 1722151138073
241. 1722151138229
242. 1722151138381
243. 1722151138529
244. 1722151138677
245. 1722151138829
246. 1722151138977
247. 1722151139129
248. 1722151139277
249. 1722151139433
250. 1722151139577
251. 1722151139729
252. 1722151139881
253. 1722151140033
254. 1722151140181
255. 1722151140333
256. 1722151140481
257. 1722151140633
258. 1722151140781
259. 1722151140933
260. 1722151141085
261. 1722151141233
262. 1722151141381
263. 1722151141533
264. 1722151141681
265. 1722151141837
266. 1722151141985
267. 1722151142141
268. 1722151142289
269. 1722151142437
270. 1722151142585
