INITIAL
* 4:33pm Jul 28, 2024
* a1 vs a0
* 1 2 2 2 2 2 5 1 2 2 2 2 2 5
* X X X X
* X X X X
* X X X X
* X X X X
* X X X X
* X X X X
* X X X X
* X X X X
* first 0
* time 900
* 1. a1(P) b4(p)
* 2. c8(P) b3(P)
* 3. c3(k) b4-b3
* 4. d8(g) c7(m)
* 5. b7(c) c2(R)
* 6. b8(P) a3(K)
* 7. b1(p) c1(M)
* 8. d2(M) c3-c2
* 9. d4(C) a4(g)
* 10. d7(G) b3-c3
* 11. a2(P) d1(N)
* 12. a8(m) b5(G)
* 13. a3-b3 b1-a1
* 14. a6(n) c7-c8
* 15. a5(C) b7-c7
* 16. b3-a3 b2(r)
* 17. b6(n) c5(R)
* 18. b5-b6 c2-d2
* 19. c6(p) b2-b3
* 20. a3-a4 c4(c)
* 21. d6(p) c4-b4
* 22. a2-a3 b4-b5
* 23. c5-b5 d3(p)
* 24. b6-a6 b3-b4
* 25. d5(N) d2-c2
* 26. b5-b4 c2-d2
* 27. a3-a2 d2-d1
* 28. d4-c4 a8-b8
* 29. d5-c5 b8-a8
* 30. a2-a3 d8-d7
* 31. a5-b5 a1-a2
* 32. a6-b6 d6-d5
* 33. c1-c2 d7-d8
* 34. c4-d4 a2-a3
* 35. a4-a5 c3-c4
* 36. c2-c3 d3-d2
* 37. c3-d3 d5-d6
* 38. c5-d5 a3-b3
* 39. b4-b3 d1-c1
* 40. b3-a3 c7-d7
* 41. a7(r) c1-b1
* 42. a3-b3 c6-c7
* 43. d5-d6 c4-b4
* 44. d6-d5 d7-d6
* 45. b6-b7 c7-c6
* 46. b5-b6 d2-d1
* 47. d3-c3 d6-b6
* 48. b3-b2 b1-c1
* 49. b7-b8 c1-c2
* 50. c3-d3 c6-d6
* 51. a5-b5 d6-c6
* 52. b2-a2 b6-b7
* 53. d3-d2 b4-a4
* 54. b5-b4 b7-c7
* 55. b8-b7 a8-b8
* 56. d5-d6 a7-a8
* 57. b7-b6 b8-b7
* 58. a2-b2 a4-a3
* 59. b6-b7 a3-b3
* 60. d4-d3 a8-a7
* 61. b7-a7 c7-b7
* 62. b2-a2 c2-d2
* 63. a2-a3 d8-d7
* 64. a7-b7 d7-c7
* 65. d6-c6 c8-b8
* 66. c6-b6 c7-b7
* 67. b6-a6 d2-d3
* 68. a3-a4 d3-c3
* 69. b4-c4 d1-c1
* 70. a4-b4 b3-a3
* 71. c4-d4 c1-c2
* 72. a6-a5 b7-a7
* 73. a5-b5 c3-b3
* 74. d4-c4 a3-a4
* 75. c4-c3 c2-d2
* 76. b4-c4 b3-b4
* 77. c4-d4 a7-a6
* 78. c3-d3 a4-a5
* 79. b5-c5 b8-c8
* 80. d4-c4 a5-b5
* 81. d3-c3 b5-b6
* 82. c4-d4 b4-b5
* 83. c5-c6 a6-a7
* 84. c3-c4 a7-a8
* 85. c6-d6 b5-b4
* 86. d6-c6 c8-b8
* 87. d4-d3 b4-c4
* 88. d3-d2 b6-a6
* 89. d2-d1 b8-c8
* 90. d1-c1 c4-d4
* 91. c6-c7 c8-d8
* 92. c7-d7 a6-a7
* 93. c1-b1 d4-d5
* 94. b1-a1 a7-b7
* 95. a1-a2 d8-c8
* 96. d7-c7 b7-b6
* 97. c7-d7 d5-d6
* 98. a2-b2 c8-b8
* 99. b2-c2 b6-b5
* 100. c2-c1 d6-d5
* 101. d7-d6 b8-c8
* 102. c1-d1 d5-d6
* 103. d1-c1 b5-a5
* 104. c1-d1 c8-c7
* 105. d1-c1 d6-d5
* 106. c1-c2 d5-c5
* 107. c2-c3 c7-b7
* 108. c3-c2 b7-b6
* 109. c2-b2 b6-b5
* 110. b2-c2 a5-a6
* 111. c2-b2 b5-a5
* 112. b2-a2 c5-b5
* 113. a2-a3 b5-b6
* 114. a3-a2 a5-b5
* 115. a2-a1 b6-c6
* 116. a1-b1 b5-b6
* 117. b1-b2 c6-c7
* 118. b2-b3 c7-c6
* 119. b3-c3 a6-a5
* 120. c3-c4 c6-d6
* 121. c4-c5 a8-a7
* 122. c5-c6 b6-c6
* NoMove a0 Wins 0.000000,1.000000
* Comment 0 0
0. 1722155610888
1. 1722155610888
2. 1722155611077
3. 1722155611229
4. 1722155611373
5. 1722155611533
6. 1722155611725
7. 1722155611881
8. 1722155612025
9. 1722155612185
10. 1722155612377
11. 1722155612533
12. 1722155612681
13. 1722155612837
14. 1722155613025
15. 1722155613185
16. 1722155613377
17. 1722155613537
18. 1722155613733
19. 1722155613889
20. 1722155614081
21. 1722155614245
22. 1722155614429
23. 1722155614589
24. 1722155614781
25. 1722155614941
26. 1722155615133
27. 1722155615297
28. 1722155615481
29. 1722155615645
30. 1722155615833
31. 1722155615997
32. 1722155616185
33. 1722155616345
34. 1722155616537
35. 1722155616697
36. 1722155616885
37. 1722155617049
38. 1722155617237
39. 1722155617397
40. 1722155617589
41. 1722155617749
42. 1722155617937
43. 1722155618101
44. 1722155618289
45. 1722155618453
46. 1722155618641
47. 1722155618801
48. 1722155618993
49. 1722155619153
50. 1722155619341
51. 1722155619505
52. 1722155619693
53. 1722155619857
54. 1722155620045
55. 1722155620205
56. 1722155620393
57. 1722155620557
58. 1722155620745
59. 1722155620909
60. 1722155621097
61. 1722155621261
62. 1722155621445
63. 1722155621609
64. 1722155621797
65. 1722155621961
66. 1722155622149
67. 1722155622313
68. 1722155622501
69. 1722155622661
70. 1722155622849
71. 1722155623017
72. 1722155623201
73. 1722155623365
74. 1722155623553
75. 1722155623713
76. 1722155623901
77. 1722155624065
78. 1722155624253
79. 1722155624417
80. 1722155624605
81. 1722155624769
82. 1722155624957
83. 1722155625117
84. 1722155625305
85. 1722155625473
86. 1722155625657
87. 1722155625821
88. 1722155626009
89. 1722155626169
90. 1722155626357
91. 1722155626521
92. 1722155626709
93. 1722155626873
94. 1722155627061
95. 1722155627221
96. 1722155627409
97. 1722155627573
98. 1722155627765
99. 1722155627925
100. 1722155628113
101. 1722155628273
102. 1722155628465
103. 1722155628625
104. 1722155628813
105. 1722155628977
106. 1722155629165
107. 1722155629329
108. 1722155629521
109. 1722155629677
110. 1722155629865
111. 1722155630033
112. 1722155630221
113. 1722155630377
114. 1722155630569
115. 1722155630729
116. 1722155630917
117. 1722155631085
118. 1722155631269
119. 1722155631429
120. 1722155631621
121. 1722155631781
122. 1722155631969
123. 1722155632133
124. 1722155632325
125. 1722155632481
126. 1722155632673
127. 1722155632833
128. 1722155633021
129. 1722155633181
130. 1722155633373
131. 1722155633533
132. 1722155633725
133. 1722155633889
134. 1722155634073
135. 1722155634233
136. 1722155634425
137. 1722155634585
138. 1722155634777
139. 1722155634937
140. 1722155635133
141. 1722155635289
142. 1722155635477
143. 1722155635637
144. 1722155635829
145. 1722155635989
146. 1722155636181
147. 1722155636341
148. 1722155636533
149. 1722155636689
150. 1722155636881
151. 1722155637045
152. 1722155637237
153. 1722155637393
154. 1722155637581
155. 1722155637741
156. 1722155637937
157. 1722155638093
158. 1722155638285
159. 1722155638441
160. 1722155638585
161. 1722155638745
162. 1722155638937
163. 1722155639093
164. 1722155639237
165. 1722155639393
166. 1722155639537
167. 1722155639697
168. 1722155639889
169. 1722155640049
170. 1722155640237
171. 1722155640397
172. 1722155640589
173. 1722155640749
174. 1722155640941
175. 1722155641101
176. 1722155641289
177. 1722155641449
178. 1722155641641
179. 1722155641801
180. 1722155641993
181. 1722155642153
182. 1722155642341
183. 1722155642501
184. 1722155642693
185. 1722155642853
186. 1722155643041
187. 1722155643205
188. 1722155643393
189. 1722155643553
190. 1722155643745
191. 1722155643909
192. 1722155644093
193. 1722155644257
194. 1722155644445
195. 1722155644609
196. 1722155644797
197. 1722155644961
198. 1722155645145
199. 1722155645309
200. 1722155645497
201. 1722155645661
202. 1722155645845
203. 1722155646013
204. 1722155646197
205. 1722155646361
206. 1722155646549
207. 1722155646713
208. 1722155646897
209. 1722155647061
210. 1722155647249
211. 1722155647413
212. 1722155647601
213. 1722155647765
214. 1722155647949
215. 1722155648117
216. 1722155648301
217. 1722155648469
218. 1722155648653
219. 1722155648817
220. 1722155649001
221. 1722155649169
222. 1722155649353
223. 1722155649521
224. 1722155649705
225. 1722155649869
226. 1722155650057
227. 1722155650221
228. 1722155650405
229. 1722155650573
230. 1722155650761
231. 1722155650921
232. 1722155651109
233. 1722155651273
234. 1722155651457
235. 1722155651625
236. 1722155651809
237. 1722155651973
238. 1722155652161
239. 1722155652325
240. 1722155652509
241. 1722155652677
242. 1722155652861
243. 1722155653029
244. 1722155653209
