INITIAL
* 4:39pm Jul 28, 2024
* a0 vs a1
* 1 2 2 2 2 2 5 1 2 2 2 2 2 5
* X X X X
* X X X X
* X X X X
* X X X X
* X X X X
* X X X X
* X X X X
* X X X X
* first 1
* time 900
* 1. a8(r) b5(R)
* 2. c3(K) b4(p)
* 3. b3(P) c7(m)
* 4. d7(c) b1(n)
* 5. d1(p) c1(g)
* 6. a1(n) c4(g)
* 7. b8(C) d5(C)
* 8. b6(k) d4(p)
* 9. b6-b5 b2(P)
* 10. a3(N) c2(G)
* 11. a4(P) c2-c1
* 12. d2(p) d3(P)
* 13. a5(r) c3-c2
* 14. d8(N) a2(M)
* 15. b4-a4 d3-d4
* 16. b1-b2 a2-b2
* 17. b5-b4 c2-c3
* 18. a5-b5 a7(M)
* 19. a8-b8 c5(G)
* 20. c4-c5 d4-d3
* 21. a1-b1 c8(P)
* 22. b8-c8 d5-d4
* 23. c5-d5 c6(p)
* 24. b5-b6 b2-b1
* 25. b4-b5 c3-c4
* 26. b5-b4 b3-c3
* 27. b4-b5 b7(m)
* 28. b5-a5 b1-a1
* 29. a5-b5 c4-c5
* 30. c8-d8 a7-b7
* 31. d8-c8 a6(c)
* 32. a4-a5 b7-b6
* 33. d5-d4 a3-b3
* 34. a5-a4 c1-b1
* 35. b5-b6 b1-c1
* 36. a6-a5 c5-d5
* 37. d4-c4 c1-b1
* 38. c4-b4 d6(R)
* 39. c8-d8 b1-c1
* 40. d2-d3 a1-a2
* 41. a4-a3 d6-d7
* 42. d1-d2 d7-d6
* 43. c7-d7 c1-c2
* 44. d8-c8 a2-a1
* 45. b4-c4 d5-c5
* 46. a3-a2 b3-b4
* 47. d7-d6 c3-b3
* 48. d6-d7 c2-c3
* 49. c4-c3 c5-b5
* 50. b6-b5 b3-b2
* 51. b5-b6 b2-a2
* 52. b6-b5 a1-b1
* 53. c3-c2 b4-b3
* 54. c6-b6 a2-a1
* 55. a5-a4 b1-b2
* 56. c2-b2 a1-a2
* 57. d2-c2 a2-a3
* 58. b2-b3 a3-a2
* 59. b3-b2 a2-a3
* 60. b2-b3 a3-a2
* 61. d7-c7 a2-a1
* 62. a4-a5 a1-b1
* 63. b3-a3 b1-c1
* 64. a5-a6 c1-b1
* 65. b5-c5 b1-b2
* 66. c7-d7 b2-c2
* 67. d7-d8 c2-c3
* 68. a6-a7 c3-b3
* 69. c5-c4 b3-c3
* 70. d8-d7 c3-b3
* 71. c8-d8 b3-c3
* 72. d3-c3
* NoMove a0 Wins 1.000000,0.000000
* Comment 0 0
0. 1722155971340
1. 1722155971340
2. 1722155971529
3. 1722155971681
4. 1722155971829
5. 1722155971985
6. 1722155972129
7. 1722155972289
8. 1722155972481
9. 1722155972637
10. 1722155972781
11. 1722155972937
12. 1722155973081
13. 1722155973237
14. 1722155973381
15. 1722155973541
16. 1722155973733
17. 1722155973889
18. 1722155974033
19. 1722155974189
20. 1722155974333
21. 1722155974493
22. 1722155974685
23. 1722155974841
24. 1722155974985
25. 1722155975141
26. 1722155975285
27. 1722155975441
28. 1722155975593
29. 1722155975745
30. 1722155975937
31. 1722155976093
32. 1722155976237
33. 1722155976397
34. 1722155976589
35. 1722155976745
36. 1722155976893
37. 1722155977045
38. 1722155977193
39. 1722155977345
40. 1722155977493
41. 1722155977645
42. 1722155977793
43. 1722155977945
44. 1722155978093
45. 1722155978249
46. 1722155978393
47. 1722155978549
48. 1722155978693
49. 1722155978849
50. 1722155978997
51. 1722155979153
52. 1722155979345
53. 1722155979501
54. 1722155979645
55. 1722155979801
56. 1722155979949
57. 1722155980101
58. 1722155980249
59. 1722155980401
60. 1722155980549
61. 1722155980701
62. 1722155980853
63. 1722155981005
64. 1722155981149
65. 1722155981305
66. 1722155981449
67. 1722155981605
68. 1722155981753
69. 1722155981905
70. 1722155982053
71. 1722155982209
72. 1722155982353
73. 1722155982505
74. 1722155982653
75. 1722155982809
76. 1722155982953
77. 1722155983109
78. 1722155983257
79. 1722155983409
80. 1722155983557
81. 1722155983709
82. 1722155983857
83. 1722155984009
84. 1722155984157
85. 1722155984309
86. 1722155984457
87. 1722155984613
88. 1722155984757
89. 1722155984913
90. 1722155985061
91. 1722155985213
92. 1722155985361
93. 1722155985513
94. 1722155985661
95. 1722155985813
96. 1722155985961
97. 1722155986117
98. 1722155986261
99. 1722155986417
100. 1722155986565
101. 1722155986721
102. 1722155986913
103. 1722155987065
104. 1722155987213
105. 1722155987369
106. 1722155987513
107. 1722155987669
108. 1722155987813
109. 1722155987969
110. 1722155988117
111. 1722155988269
112. 1722155988417
113. 1722155988569
114. 1722155988717
115. 1722155988869
116. 1722155989017
117. 1722155989173
118. 1722155989317
119. 1722155989477
120. 1722155989669
121. 1722155989825
122. 1722155989969
123. 1722155990125
124. 1722155990269
125. 1722155990425
126. 1722155990569
127. 1722155990725
128. 1722155990873
129. 1722155991025
130. 1722155991173
131. 1722155991325
132. 1722155991473
133. 1722155991629
134. 1722155991773
135. 1722155991929
136. 1722155992073
137. 1722155992229
138. 1722155992377
139. 1722155992529
140. 1722155992677
141. 1722155992829
142. 1722155992977
143. 1722155993129
