INITIAL
* 4:15pm Jul 28, 2024
* a0 vs a1
* 1 2 2 2 2 2 5 1 2 2 2 2 2 5
* X X X X
* X X X X
* X X X X
* X X X X
* X X X X
* X X X X
* X X X X
* X X X X
* first 0
* time 900
* 1. a8(P) d2(P)
* 2. c2(R) b5(m)
* 3. b3(c) d1(R)
* 4. c6(C) b1(n)
* 5. c8(G) c1(p)
* 6. b2(n) a7(p)
* 7. b8(c) a3(N)
* 8. c3(P) a5(M)
* 9. c2-c1 d8(g)
* 10. c4(N) a6(k)
* 11. d2-c2 c5(m)
* 12. d6(P) a1(K)
* 13. c2-d2 d5(g)
* 14. d7(M) d8-d7
* 15. a2(P) d3(r)
* 16. b4(C) a7-a8
* 17. c8-b8 a4(G)
* 18. b8-a8 b2-c2
* 19. a3-b3 c2-d2
* 20. b4-b1 d7-d8
* 21. d6-d7 d2-c2
* 22. b1-b2 b5-b4
* 23. b2-b4 d3-c3
* 24. b4-b5 a6-a5
* 25. a4-a3 c5-c4
* 26. b7(p) a5-a4
* 27. a8-b8 c2-b2
* 28. c1-c2 c3-b3
* 29. b5-b2 d5-d6
* 30. c6-c5 b6(p)
* 31. a1-b1 b6-b5
* 32. d1-d2 b5-b6
* 33. c5-b5 b6-c6
* 34. a2-a1 d8-c8
* 35. b2-a2 c6-b6
* 36. b5-c5 b3-c3
* 37. a2-b2 b6-b5
* 38. b8-a8 b7-b8
* 39. c5-c8 c3-d3
* 40. d4(r) c4-b4
* 41. b1-c1 b4-c4
* 42. c8-c4 a4-b4
* 43. a1-b1 d6-d7
* 44. b2-a2 d3-c3
* 45. d2-d1 b4-b3
* 46. a8-b8 b5-b6
* 47. c2-b2 c3-c2
* 48. a3-a4 b6-a6
* 49. b8-b7 b3-c3
* 50. c4-c2 c3-b3
* 51. a4-a5 a6-b6
* 52. c7(p) d7-d6
* 53. a2-a3 d6-c6
* 54. b1-a1 d4-d3
* 55. a1-b1 b6-a6
* 56. a5-a4 c6-b6
* 57. a4-b4 d3-d2
* 58. b4-c4 b6-c6
* 59. a3-a2 c6-c5
* 60. b7-a7 c7-c6
* 61. c4-d4 c5-c4
* 62. d4-c4 c6-b6
* 63. c4-c5 b6-c6
* 64. c5-c4 d2-d3
* 65. c4-c5 d3-c3
* 66. b1-a1 b3-b4
* 67. c5-c4 c6-b6
* 68. c4-c3 b4-b5
* 69. c3-d3 b6-b7
* 70. c1-b1 b5-a5
* 71. c2-c1 b7-b6
* 72. a7-b7 a6-a7
* 73. a2-a7 b6-a6
* 74. b2-a2 a5-b5
* 75. a7-a8 a6-a5
* 76. c1-c2 a5-a6
* 77. b1-c1 a6-b6
* 78. d3-c3 b6-c6
* 79. a8-a7 c6-d6
* 80. b7-b8 d6-c6
* 81. c3-d3 c6-b6
* 82. d3-c3 b5-b4
* 83. c3-b3 b6-b7
* 84. b8-b7 b4-b5
* 85. a2-a3 b5-b6
* 86. a1-a2 b6-b7
* 87. b3-b2 b7-b8
* 88. d1-d2 b8-b7
* 89. a3-b3 b7-c7
* 90. a2-a1 c7-c6
* 91. c2-c3 c6-c5
* 92. d2-d1 c5-c4
* 93. c1-c2 c4-b4
* 94. a1-a2 b4-c4
* 95. b3-b4 c4-d4
* 96. b4-b3 d4-d5
* 97. a7-a6 d5-d4
* 98. b3-a3 d4-d5
* 99. c2-c1 d5-c5
* 100. a6-a7 c5-b5
* 101. c3-b3 b5-b4
* 102. a7-b7 b4-a4
* 103. b2-b1 a4-a5
* 104. a2-b2 a5-a6
* 105. c1-c2 a6-a7
* 106. b3-c3 a7-a6
* 107. b2-a2 a6-a5
* 108. c2-c1 a5-a4
* 109. c3-d3 a4-a5
* 110. d3-c3 a5-a6
* 111. c3-c4 a6-a5
* 112. b1-a1 a5-a4
* 113. c4-d4 a4-a3
* 114. d4-c4 a3-b3
* 115. b7-b6 b3-b4
* 116. b6-b5 b4-c4
* 117. b5-c5 c4-c3
* 118. d1-d2 c3-c2
* 119. c1-c2
* NoMove a0 Wins 1.000000,0.000000
* Comment 0 0
0. 1722154500176
1. 1722154500176
2. 1722154500365
3. 1722154500521
4. 1722154500717
5. 1722154500869
6. 1722154501013
7. 1722154501169
8. 1722154501317
9. 1722154501473
10. 1722154501617
11. 1722154501773
12. 1722154501917
13. 1722154502073
14. 1722154502217
15. 1722154502373
16. 1722154502517
17. 1722154502673
18. 1722154502821
19. 1722154502973
20. 1722154503121
21. 1722154503273
22. 1722154503421
23. 1722154503577
24. 1722154503721
25. 1722154503877
26. 1722154504021
27. 1722154504177
28. 1722154504325
29. 1722154504477
30. 1722154504621
31. 1722154504777
32. 1722154504925
33. 1722154505077
34. 1722154505229
35. 1722154505381
36. 1722154505529
37. 1722154505685
38. 1722154505877
39. 1722154506029
40. 1722154506177
41. 1722154506329
42. 1722154506477
43. 1722154506633
44. 1722154506777
45. 1722154506937
46. 1722154507133
47. 1722154507281
48. 1722154507429
49. 1722154507585
50. 1722154507729
51. 1722154507885
52. 1722154508029
53. 1722154508185
54. 1722154508333
55. 1722154508485
56. 1722154508633
57. 1722154508785
58. 1722154508933
59. 1722154509085
60. 1722154509233
61. 1722154509389
62. 1722154509533
63. 1722154509689
64. 1722154509837
65. 1722154509989
66. 1722154510137
67. 1722154510289
68. 1722154510437
69. 1722154510589
70. 1722154510737
71. 1722154510889
72. 1722154511037
73. 1722154511189
74. 1722154511337
75. 1722154511493
76. 1722154511641
77. 1722154511793
78. 1722154511941
79. 1722154512093
80. 1722154512245
81. 1722154512393
82. 1722154512541
83. 1722154512693
84. 1722154512845
85. 1722154512993
86. 1722154513141
87. 1722154513293
88. 1722154513441
89. 1722154513597
90. 1722154513745
91. 1722154513897
92. 1722154514045
93. 1722154514201
94. 1722154514345
95. 1722154514497
96. 1722154514645
97. 1722154514797
98. 1722154514945
99. 1722154515097
100. 1722154515245
101. 1722154515401
102. 1722154515545
103. 1722154515701
104. 1722154515849
105. 1722154516001
106. 1722154516149
107. 1722154516301
108. 1722154516449
109. 1722154516601
110. 1722154516749
111. 1722154516901
112. 1722154517049
113. 1722154517205
114. 1722154517349
115. 1722154517509
116. 1722154517701
117. 1722154517853
118. 1722154518001
119. 1722154518157
120. 1722154518301
121. 1722154518461
122. 1722154518653
123. 1722154518805
124. 1722154518953
125. 1722154519109
126. 1722154519253
127. 1722154519409
128. 1722154519553
129. 1722154519709
130. 1722154519853
131. 1722154520009
132. 1722154520153
133. 1722154520309
134. 1722154520453
135. 1722154520613
136. 1722154520805
137. 1722154520961
138. 1722154521105
139. 1722154521265
140. 1722154521461
141. 1722154521617
142. 1722154521805
143. 1722154521965
144. 1722154522157
145. 1722154522317
146. 1722154522509
147. 1722154522669
148. 1722154522857
149. 1722154523017
150. 1722154523209
151. 1722154523369
152. 1722154523561
153. 1722154523717
154. 1722154523861
155. 1722154524017
156. 1722154524161
157. 1722154524321
158. 1722154524513
159. 1722154524669
160. 1722154524813
161. 1722154524973
162. 1722154525165
163. 1722154525321
164. 1722154525465
165. 1722154525621
166. 1722154525765
167. 1722154525929
168. 1722154526117
169. 1722154526273
170. 1722154526417
171. 1722154526573
172. 1722154526717
173. 1722154526877
174. 1722154527069
175. 1722154527225
176. 1722154527369
177. 1722154527525
178. 1722154527673
179. 1722154527829
180. 1722154528021
181. 1722154528177
182. 1722154528321
183. 1722154528477
184. 1722154528621
185. 1722154528781
186. 1722154528977
187. 1722154529129
188. 1722154529321
189. 1722154529481
190. 1722154529677
191. 1722154529833
192. 1722154530021
193. 1722154530181
194. 1722154530373
195. 1722154530537
196. 1722154530725
197. 1722154530885
198. 1722154531073
199. 1722154531233
200. 1722154531425
201. 1722154531585
202. 1722154531777
203. 1722154531937
204. 1722154532129
205. 1722154532289
206. 1722154532477
207. 1722154532637
208. 1722154532829
209. 1722154532989
210. 1722154533177
211. 1722154533337
212. 1722154533529
213. 1722154533689
214. 1722154533881
215. 1722154534041
216. 1722154534229
217. 1722154534393
218. 1722154534581
219. 1722154534741
220. 1722154534929
221. 1722154535093
222. 1722154535281
223. 1722154535445
224. 1722154535633
225. 1722154535797
226. 1722154535981
227. 1722154536149
228. 1722154536333
229. 1722154536497
230. 1722154536689
231. 1722154536849
232. 1722154537033
233. 1722154537201
234. 1722154537385
235. 1722154537549
236. 1722154537733
237. 1722154537901
