INITIAL
* 3:25pm Jul 28, 2024
* a1 vs a0
* 1 2 2 2 2 2 5 1 2 2 2 2 2 5
* X X X X
* X X X X
* X X X X
* X X X X
* X X X X
* X X X X
* X X X X
* X X X X
* first 1
* time 900
* 1. a2(m) b4(p)
* 2. a7(r) b5(R)
* 3. c4(p) b5-b4
* 4. d3(G) c7(n)
* 5. a5(g) a3(N)
* 6. b8(r) b4-b5
* 7. d4(N) c6(p)
* 8. a1(p) c1(R)
* 9. a4(k) b1(P)
* 10. b2(c) a8(g)
* 11. d8(C) b7(K)
* 12. d1(P) d4-c4
* 13. c5(M) c4-b4
* 14. c3(p) c5-c4
* 15. a2-a3 b5-c5
* 16. a1-a2 b7-c7
* 17. b3(n) c4-c3
* 18. c2(P) d7(C)
* 19. b2-b4 d7-a7
* 20. a8-a7 c5-c4
* 21. b6(G) c7-b7
* 22. b8-a8 c2-b2
* 23. a6(m) b6-b5
* 24. a2-b2 b5-b6
* 25. c8(M) b6-b5
* 26. b2-c2 b5-a5
* 27. a4-a5 b7-a7
* 28. a5-a4 c3-c2
* 29. d5(P) a7-b7
* 30. a6-b6 d8-d7
* 31. a3-a2 d7-d8
* 32. b3-a3 d5-d4
* 33. d2(c) b7-a7
* 34. a2-a1 d3-c3
* 35. a1-a2 c2-b2
* 36. b6-b5 c1-c2
* 37. c6-c7 a7-b7
* 38. d6(P) c3-b3
* 39. c7-d7 c2-d2
* 40. b5-c5 b7-b6
* 41. a4-a5 d6-d7
* 42. c5-c6 d7-c7
* 43. a3-a4 d4-d3
* 44. a8-b8 d8-d7
* 45. a2-a1 b3-c3
* 46. c6-c7 c4-b4
* 47. c7-c6 c3-c2
* 48. b8-a8 d7-d8
* 49. a4-a3 d1-c1
* 50. a1-b1 b6-b5
* 51. a5-a4 b2-b1
* 52. c6-d6 c8-c7
* 53. d6-d7 b1-b2
* 54. a4-b4 c1-d1
* 55. b4-a4 b2-a2
* 56. a4-b4 c2-c1
* 57. b4-c4 a2-a3
* 58. c4-c3 d8-c8
* 59. c3-c4 b5-b6
* 60. a8-a7 c8-b8
* 61. c4-d4 b6-c6
* 62. a7-b7 d2-c2
* 63. d4-c4 a3-a2
* 64. c4-c5 b8-a8
* 65. c5-d5 c7-c8
* 66. d7-d8 a8-a7
* 67. d8-c8 c6-c7
* 68. d5-c5 c1-b1
* 69. c5-c4 c2-d2
* 70. b7-b8 d2-c2
* 71. c4-b4 a2-a3
* 72. c8-d8 d3-d2
* 73. d8-c8 a3-a4
* 74. b4-a4 a7-a8
* 75. b8-b7 c7-d7
* 76. b7-b6 c2-b2
* 77. a4-b4 d2-d3
* 78. b6-c6 d7-d6
* 79. c6-c5 b1-c1
* 80. b4-c4 b2-b1
* 81. c8-b8 d3-d2
* 82. c4-c3 d6-c6
* 83. b8-a8 c6-c5
* 84. c3-c2 c5-b5
* 85. c2-b2 b5-b4
* 86. b2-b3 b4-b5
* 87. a8-a7 c1-c2
* 88. b3-a3 d2-d3
* 89. a7-b7 b1-c1
* 90. b7-a7 c2-d2
* 91. a7-a8 d2-c2
* 92. a3-a2 b5-a5
* 93. a2-a3 d3-d4
* 94. a3-b3 d4-c4
* 95. a8-a7 c4-b4
* 96. b3-b2 b4-b5
* 97. b2-b1 c2-d2
* 98. a7-a8 b5-b6
* 99. a8-a7 b6-b7
* 100. b1-a1 d2-d3
* 101. a7-a6 a5-b5
* 102. a1-a2 b5-a5
* 103. a6-a7 a5-a4
* 104. a2-b2 d3-d4
* 105. b2-b1 b7-b6
* 106. a7-a6 d1-d2
* 107. b1-c1 b6-b5
* 108. c1-d1 d2-d3
* 109. a6-a7 d3-c3
* 110. a7-a8 a4-a5
* 111. a8-a7 b5-b4
* 112. d1-c1 c3-c4
* 113. a7-a8 a5-b5
* 114. c1-c2 b5-a5
* 115. c2-c1 c4-c5
* 116. a8-a7 d4-d3
* 117. c1-d1 c5-b5
* 118. a7-b7 d3-d2
* 119. d1-d2 b5-c5
* 120. b7-b6 c5-d5
* 121. b6-a6 a5-a6
* 122. d2-d1 d5-d4
* 123. d1-d2 a6-b6
* 124. d2-c2 b4-b3
* 125. c2-c1 d4-d3
* 126. c1-b1 b3-b2
* 127. b1-a1 b6-b7
* 128. a1-b1 b2-c2
* 129. b1-c1 d3-d2
* 130. c1-d1 c2-b2
* 131. d1-c1 d2-d1
* 132. c1-b1 b7-c7
* 133. b1-a1 c7-c6
* 134. a1-b1 b2-b1
* NoMove a0 Wins 0.000000,1.000000
* Comment 0 0
0. 1722151515660
1. 1722151515660
2. 1722151515845
3. 1722151516001
4. 1722151516145
5. 1722151516305
6. 1722151516497
7. 1722151516653
8. 1722151516801
9. 1722151516957
10. 1722151517149
11. 1722151517305
12. 1722151517449
13. 1722151517605
14. 1722151517753
15. 1722151517913
16. 1722151518101
17. 1722151518257
18. 1722151518401
19. 1722151518557
20. 1722151518701
21. 1722151518865
22. 1722151519057
23. 1722151519209
24. 1722151519353
25. 1722151519509
26. 1722151519653
27. 1722151519813
28. 1722151520005
29. 1722151520161
30. 1722151520305
31. 1722151520465
32. 1722151520657
33. 1722151520813
34. 1722151520957
35. 1722151521113
36. 1722151521257
37. 1722151521413
38. 1722151521561
39. 1722151521717
40. 1722151521909
41. 1722151522065
42. 1722151522209
43. 1722151522369
44. 1722151522565
45. 1722151522717
46. 1722151522861
47. 1722151523017
48. 1722151523165
49. 1722151523321
50. 1722151523513
51. 1722151523669
52. 1722151523813
53. 1722151523977
54. 1722151524165
55. 1722151524321
56. 1722151524465
57. 1722151524621
58. 1722151524765
59. 1722151524929
60. 1722151525117
61. 1722151525273
62. 1722151525417
63. 1722151525573
64. 1722151525717
65. 1722151525877
66. 1722151526069
67. 1722151526225
68. 1722151526369
69. 1722151526533
70. 1722151526721
71. 1722151526877
72. 1722151527021
73. 1722151527177
74. 1722151527321
75. 1722151527485
76. 1722151527673
77. 1722151527829
78. 1722151527973
79. 1722151528133
80. 1722151528325
81. 1722151528481
82. 1722151528625
83. 1722151528781
84. 1722151528929
85. 1722151529085
86. 1722151529229
87. 1722151529385
88. 1722151529529
89. 1722151529685
90. 1722151529829
91. 1722151529989
92. 1722151530181
93. 1722151530337
94. 1722151530481
95. 1722151530637
96. 1722151530781
97. 1722151530937
98. 1722151531085
99. 1722151531241
100. 1722151531433
101. 1722151531589
102. 1722151531733
103. 1722151531889
104. 1722151532037
105. 1722151532189
106. 1722151532337
107. 1722151532493
108. 1722151532637
109. 1722151532793
110. 1722151532937
111. 1722151533093
112. 1722151533237
113. 1722151533393
114. 1722151533537
115. 1722151533693
116. 1722151533837
117. 1722151533993
118. 1722151534145
119. 1722151534293
120. 1722151534441
121. 1722151534597
122. 1722151534741
123. 1722151534897
124. 1722151535041
125. 1722151535197
126. 1722151535341
127. 1722151535497
128. 1722151535645
129. 1722151535797
130. 1722151535945
131. 1722151536097
132. 1722151536245
133. 1722151536401
134. 1722151536545
135. 1722151536701
136. 1722151536849
137. 1722151537001
138. 1722151537149
139. 1722151537305
140. 1722151537501
141. 1722151537653
142. 1722151537797
143. 1722151537957
144. 1722151538153
145. 1722151538305
146. 1722151538449
147. 1722151538605
148. 1722151538753
149. 1722151538905
150. 1722151539053
151. 1722151539209
152. 1722151539353
153. 1722151539505
154. 1722151539653
155. 1722151539805
156. 1722151539953
157. 1722151540109
158. 1722151540253
159. 1722151540409
160. 1722151540553
161. 1722151540709
162. 1722151540857
163. 1722151541009
164. 1722151541157
165. 1722151541309
166. 1722151541457
167. 1722151541617
168. 1722151541813
169. 1722151541961
170. 1722151542109
171. 1722151542261
172. 1722151542409
173. 1722151542565
174. 1722151542709
175. 1722151542865
176. 1722151543009
177. 1722151543165
178. 1722151543317
179. 1722151543465
180. 1722151543613
181. 1722151543765
182. 1722151543913
183. 1722151544069
184. 1722151544213
185. 1722151544365
186. 1722151544517
187. 1722151544669
188. 1722151544813
189. 1722151544973
190. 1722151545165
191. 1722151545321
192. 1722151545465
193. 1722151545617
194. 1722151545769
195. 1722151545921
196. 1722151546065
197. 1722151546221
198. 1722151546369
199. 1722151546521
200. 1722151546673
201. 1722151546821
202. 1722151546969
203. 1722151547121
204. 1722151547269
205. 1722151547421
206. 1722151547569
207. 1722151547721
208. 1722151547869
209. 1722151548025
210. 1722151548173
211. 1722151548325
212. 1722151548473
213. 1722151548625
214. 1722151548773
215. 1722151548925
216. 1722151549073
217. 1722151549225
218. 1722151549377
219. 1722151549525
220. 1722151549677
221. 1722151549825
222. 1722151549977
223. 1722151550129
224. 1722151550277
225. 1722151550429
226. 1722151550581
227. 1722151550733
228. 1722151550877
229. 1722151551029
230. 1722151551177
231. 1722151551329
232. 1722151551481
233. 1722151551629
234. 1722151551781
235. 1722151551937
236. 1722151552085
237. 1722151552237
238. 1722151552385
239. 1722151552533
240. 1722151552681
241. 1722151552833
242. 1722151552985
243. 1722151553137
244. 1722151553285
245. 1722151553433
246. 1722151553585
247. 1722151553737
248. 1722151553885
249. 1722151554037
250. 1722151554185
251. 1722151554337
252. 1722151554489
253. 1722151554637
254. 1722151554793
255. 1722151554937
256. 1722151555093
257. 1722151555237
258. 1722151555389
259. 1722151555541
260. 1722151555689
261. 1722151555841
262. 1722151555993
263. 1722151556137
264. 1722151556293
265. 1722151556437
266. 1722151556593
267. 1722151556741
268. 1722151556897
