INITIAL
* 3:57pm Jul 28, 2024
* a1 vs a0
* 1 2 2 2 2 2 5 1 2 2 2 2 2 5
* X X X X
* X X X X
* X X X X
* X X X X
* X X X X
* X X X X
* X X X X
* X X X X
* first 0
* time 900
* 1. c3(P) b3(n)
* 2. b8(P) c2(G)
* 3. d3(K) b2(g)
* 4. a2(g) d7(c)
* 5. b1(C) a3(m)
* 6. d5(P) b5(G)
* 7. d1(c) b7(R)
* 8. a1(P) d1-b1
* 9. c7(R) d2(r)
* 10. a7(n) a4(k)
* 11. c6(p) d6(p)
* 12. c5(C) d7-b7
* 13. a6(N) a8(p)
* 14. c4(r) b6(M)
* 15. b4(m) a8-b8
* 16. d8(P) b7-b5
* 17. c8(p) b3-c3
* 18. a5(N) b2-b3
* 19. c2-b2 a7-a6
* 20. d8-d7 c3-c2
* 21. d3-c3 a2-a1
* 22. b6-b7 d2-d1
* 23. c1(M) d4(p)
* 24. b2-b3 b5-b6
* 25. b7-b8 b6-b3
* 26. c3-b3 c2-d2
* 27. c5-b5 b1-b2
* 28. b5-b6 c6-c5
* 29. b8-c8 a4-a5
* 30. b6-b7 a6-b6
* 31. b7-a7 a5-b5
* 32. a7-a6 d4-d3
* 33. a6-a7 b6-b7
* 34. c8-d8 d6-d5
* 35. a7-a6 d3-c3
* 36. c1-d1 b5-b6
* 37. d1-d2 b4-a4
* 38. c7-c6 b6-a6
* 39. d2-d3 b7-c7
* 40. d3-c3 c7-d7
* 41. b3-b4 d5-d4
* 42. c3-b3 c5-d5
* 43. c6-b6 a3-a2
* 44. d8-d7 d5-d6
* 45. b3-c3 b2-b3
* 46. b6-b5 b3-a3
* 47. c3-c4 a6-a7
* 48. b5-c5 d6-c6
* 49. d7-d8 d4-d3
* 50. b4-b5 c6-b6
* 51. c4-b4 b6-a6
* 52. b4-b3 a7-a8
* 53. b3-c3 a6-a5
* 54. c5-d5 a1-b1
* 55. d5-c5 a3-b3
* 56. c5-d5 a5-b5
* 57. c3-c2 a8-b8
* 58. d5-c5 b8-a8
* 59. c5-b5 a4-b4
* 60. c2-c1 b4-b5
* 61. c1-d1 b1-a1
* 62. d8-c8 d3-c3
* 63. c8-c7 c3-c2
* 64. c7-c6 a8-b8
* 65. c6-b6 b8-c8
* 66. b6-c6 c8-c7
* 67. c6-d6 b3-c3
* 68. d6-d5 b5-c5
* 69. d5-d4 a2-b2
* 70. d4-c4 c7-c8
* 71. d1-c1 c5-c4
* 72. c1-d1 a1-a2
* 73. d1-d2 a2-a3
* 74. d2-d3 a3-a4
* 75. d3-d2 c8-c7
* 76. d2-c2 c3-b3
* 77. c2-c1 c4-c5
* 78. c1-b1 c7-b7
* 79. b1-a1 b2-c2
* 80. a1-a2 b3-a3
* 81. a2-a1 c5-c4
* 82. a1-a2 b7-a7
* 83. a2-b2 a7-a6
* 84. b2-b3 a3-a2
* 85. b3-a3 c4-b4
* 86. a3-b3 b4-c4
* 87. b3-b4 a4-b4
* NoMove a0 Wins 0.000000,1.000000
* Comment 0 0
0. 1722153476320
1. 1722153476320
2. 1722153476505
3. 1722153476665
4. 1722153476857
5. 1722153477013
6. 1722153477157
7. 1722153477313
8. 1722153477457
9. 1722153477621
10. 1722153477809
11. 1722153477965
12. 1722153478109
13. 1722153478265
14. 1722153478409
15. 1722153478569
16. 1722153478761
17. 1722153478917
18. 1722153479061
19. 1722153479221
20. 1722153479409
21. 1722153479569
22. 1722153479761
23. 1722153479925
24. 1722153480113
25. 1722153480273
26. 1722153480465
27. 1722153480621
28. 1722153480765
29. 1722153480925
30. 1722153481113
31. 1722153481277
32. 1722153481465
33. 1722153481625
34. 1722153481817
35. 1722153481977
36. 1722153482169
37. 1722153482325
38. 1722153482469
39. 1722153482629
40. 1722153482821
41. 1722153482977
42. 1722153483173
43. 1722153483329
44. 1722153483521
45. 1722153483681
46. 1722153483877
47. 1722153484029
48. 1722153484177
49. 1722153484329
50. 1722153484473
51. 1722153484633
52. 1722153484825
53. 1722153484981
54. 1722153485125
55. 1722153485281
56. 1722153485425
57. 1722153485581
58. 1722153485725
59. 1722153485885
60. 1722153486077
61. 1722153486233
62. 1722153486381
63. 1722153486533
64. 1722153486681
65. 1722153486833
66. 1722153486977
67. 1722153487137
68. 1722153487329
69. 1722153487485
70. 1722153487629
71. 1722153487785
72. 1722153487929
73. 1722153488089
74. 1722153488281
75. 1722153488437
76. 1722153488581
77. 1722153488737
78. 1722153488881
79. 1722153489041
80. 1722153489233
81. 1722153489389
82. 1722153489533
83. 1722153489689
84. 1722153489833
85. 1722153489993
86. 1722153490185
87. 1722153490341
88. 1722153490485
89. 1722153490645
90. 1722153490837
91. 1722153490993
92. 1722153491137
93. 1722153491293
94. 1722153491437
95. 1722153491597
96. 1722153491789
97. 1722153491945
98. 1722153492089
99. 1722153492249
100. 1722153492441
101. 1722153492597
102. 1722153492745
103. 1722153492897
104. 1722153493041
105. 1722153493201
106. 1722153493393
107. 1722153493549
108. 1722153493693
109. 1722153493849
110. 1722153493993
111. 1722153494153
112. 1722153494345
113. 1722153494501
114. 1722153494645
115. 1722153494805
116. 1722153494997
117. 1722153495153
118. 1722153495297
119. 1722153495453
120. 1722153495597
121. 1722153495757
122. 1722153495949
123. 1722153496105
124. 1722153496249
125. 1722153496405
126. 1722153496549
127. 1722153496709
128. 1722153496901
129. 1722153497061
130. 1722153497253
131. 1722153497409
132. 1722153497553
133. 1722153497709
134. 1722153497853
135. 1722153498009
136. 1722153498153
137. 1722153498313
138. 1722153498505
139. 1722153498661
140. 1722153498805
141. 1722153498961
142. 1722153499109
143. 1722153499265
144. 1722153499457
145. 1722153499613
146. 1722153499757
147. 1722153499913
148. 1722153500061
149. 1722153500217
150. 1722153500361
151. 1722153500517
152. 1722153500661
153. 1722153500817
154. 1722153500961
155. 1722153501117
156. 1722153501261
157. 1722153501417
158. 1722153501561
159. 1722153501717
160. 1722153501861
161. 1722153502021
162. 1722153502213
163. 1722153502369
164. 1722153502513
165. 1722153502669
166. 1722153502821
167. 1722153502973
168. 1722153503165
169. 1722153503321
170. 1722153503469
171. 1722153503621
172. 1722153503773
173. 1722153503925
174. 1722153504117
