INITIAL
* 4:19pm Jul 28, 2024
* a0 vs a1
* 1 2 2 2 2 2 5 1 2 2 2 2 2 5
* X X X X
* X X X X
* X X X X
* X X X X
* X X X X
* X X X X
* X X X X
* X X X X
* first 1
* time 900
* 1. a8(m) c1(R)
* 2. c3(n) d6(C)
* 3. b3(c) a7(P)
* 4. d7(C) b8(p)
* 5. c8(K) b5(r)
* 6. b1(P) c7(p)
* 7. b6(n) c2(P)
* 8. a2(N) a1(g)
* 9. b8-c8 a5(P)
* 10. a1-b1 b4(N)
* 11. b5-a5 d1(p)
* 12. d5(M) c4(R)
* 13. a4(P) b2(m)
* 14. d8(g) d6-b6
* 15. a6(p) d2(c)
* 16. b3-b6 b4-b5
* 17. a3(G) a3-b3
* 18. a5-b5 d7-d6
* 19. c7-d7 b3-a3
* 20. a6-a7 c1-d1
* 21. c8-c7 c4-c3
* 22. b5-b4 d1-c1
* 23. b2-b3 a4-a5
* 24. b6-a6 a2-b2
* 25. a6-b6 d6-b6
* 26. b7(G) c1-d1
* 27. b4-b5 a3-b3
* 28. b1-b2 c6(k)
* 29. d4(p) d3(r)
* 30. c6-d6 d1-d2
* 31. b2-b1 a5-a6
* 32. d6-d5 a6-a7
* 33. c7-c6 c2-b2
* 34. d3-d2 a7-a6
* 35. c6-c7 c3-c2
* 36. b5-a5 b7-a7
* 37. d4-c4 c2-c1
* 38. c4-b4 b2-c2
* 39. d2-d1 a7-b7
* 40. a5-a4 a6-a5
* 41. d5-d4 a5-a6
* 42. d4-c4 b3-c3
* 43. c4-d4 c3-d3
* 44. d8-c8 b7-b8
* 45. d7-d6 c2-d2
* 46. a4-a3 c5(M)
* 47. c8-b8 c5-c4
* 48. d4-d3 a6-a5
* 49. b1-b2 a5-a6
* 50. d1-d2 c1-c2
* 51. b2-b3 c2-d2
* 52. b8-c8 d2-c2
* 53. c7-b7 c4-c3
* 54. b4-c4 c2-c1
* 55. d3-d2 a6-a5
* 56. d2-d3 c1-d1
* 57. b3-b2 a5-b5
* 58. a3-a2 c3-b3
* 59. d3-d4 b5-b4
* 60. c4-b4 d1-c1
* 61. c8-c7 b6-b5
* 62. b2-b1 b3-b2
* 63. b1-a1 c1-c2
* 64. a8-a7 b2-b3
* 65. a2-b2 c2-c1
* 66. b2-c2 b3-b4
* 67. b7-b6 b5-a5
* 68. c2-c3 b4-b5
* 69. c7-c6 a5-a6
* 70. d4-d3 b5-b6
* 71. c6-c7 c1-c2
* 72. d6-c6 b6-b7
* 73. d3-d4 c2-d2
* 74. c6-b6 b7-a7
* 75. d4-d5 d2-d3
* 76. c3-d3 a6-a5
* 77. d3-c3 a5-b5
* 78. c7-c6 b5-b4
* 79. b6-b7 b4-b5
* 80. c3-c4 b5-c5
* 81. d5-d4 a7-b7
* 82. a1-b1 b7-b6
* 83. b1-a1 c5-d5
* 84. d4-d5 b6-a6
* 85. a1-b1 a6-b6
* 86. c4-c5 b6-a6
* 87. c5-b5 a6-b6
* 88. b1-a1 b6-b7
* 89. c6-c5 b7-a7
* 90. a1-b1 a7-a6
* 91. b1-c1 a6-a5
* 92. c5-c4 a5-a6
* 93. d5-d6 a6-a7
* 94. b5-a5 a7-a8
* 95. c4-c5 a8-b8
* 96. c1-d1 b8-b7
* 97. d6-d7 b7-c7
* 98. c5-c4 c7-c6
* 99. c4-c3 c6-c5
* 100. d7-d6 c5-d5
* 101. c3-b3 d5-c5
* 102. d6-d7 c5-b5
* 103. d7-c7 b5-c5
* 104. a5-a4 c5-d5
* 105. d1-c1 d5-c5
* 106. b3-c3 c5-c4
* 107. c3-c4
* NoMove a0 Wins 1.000000,0.000000
* Comment 0 0
0. 1722154768304
1. 1722154768304
2. 1722154768493
3. 1722154768649
4. 1722154768793
5. 1722154768949
6. 1722154769093
7. 1722154769253
8. 1722154769445
9. 1722154769601
10. 1722154769745
11. 1722154769901
12. 1722154770045
13. 1722154770205
14. 1722154770397
15. 1722154770557
16. 1722154770745
17. 1722154770901
18. 1722154771049
19. 1722154771205
20. 1722154771397
21. 1722154771557
22. 1722154771749
23. 1722154771909
24. 1722154772097
25. 1722154772253
26. 1722154772401
27. 1722154772557
28. 1722154772701
29. 1722154772857
30. 1722154773001
31. 1722154773161
32. 1722154773353
33. 1722154773509
34. 1722154773701
35. 1722154773857
36. 1722154774001
37. 1722154774157
38. 1722154774305
39. 1722154774461
40. 1722154774605
41. 1722154774761
42. 1722154774905
43. 1722154775061
44. 1722154775205
45. 1722154775361
46. 1722154775505
47. 1722154775661
48. 1722154775805
49. 1722154775969
50. 1722154776157
51. 1722154776317
52. 1722154776509
53. 1722154776665
54. 1722154776813
55. 1722154776969
56. 1722154777165
57. 1722154777317
58. 1722154777509
59. 1722154777669
60. 1722154777861
61. 1722154778017
62. 1722154778161
63. 1722154778317
64. 1722154778461
65. 1722154778617
66. 1722154778761
67. 1722154778921
68. 1722154779117
69. 1722154779269
70. 1722154779413
71. 1722154779573
72. 1722154779765
73. 1722154779921
74. 1722154780065
75. 1722154780221
76. 1722154780365
77. 1722154780525
78. 1722154780717
79. 1722154780873
80. 1722154781017
81. 1722154781177
82. 1722154781369
83. 1722154781525
84. 1722154781669
85. 1722154781825
86. 1722154781969
87. 1722154782129
88. 1722154782321
89. 1722154782477
90. 1722154782625
91. 1722154782777
92. 1722154782921
93. 1722154783085
94. 1722154783273
95. 1722154783433
96. 1722154783625
97. 1722154783781
98. 1722154783973
99. 1722154784133
100. 1722154784329
101. 1722154784481
102. 1722154784629
103. 1722154784781
104. 1722154784925
105. 1722154785089
106. 1722154785281
107. 1722154785437
108. 1722154785633
109. 1722154785785
110. 1722154785981
111. 1722154786141
112. 1722154786329
113. 1722154786489
114. 1722154786681
115. 1722154786837
116. 1722154787029
117. 1722154787189
118. 1722154787385
119. 1722154787537
120. 1722154787681
121. 1722154787837
122. 1722154787985
123. 1722154788141
124. 1722154788333
125. 1722154788489
126. 1722154788637
127. 1722154788793
128. 1722154788985
129. 1722154789141
130. 1722154789289
131. 1722154789441
132. 1722154789589
133. 1722154789745
134. 1722154789941
135. 1722154790093
136. 1722154790241
137. 1722154790393
138. 1722154790541
139. 1722154790693
140. 1722154790841
141. 1722154790997
142. 1722154791141
143. 1722154791297
144. 1722154791441
145. 1722154791597
146. 1722154791741
147. 1722154791897
148. 1722154792041
149. 1722154792197
150. 1722154792345
151. 1722154792497
152. 1722154792645
153. 1722154792797
154. 1722154792945
155. 1722154793097
156. 1722154793245
157. 1722154793401
158. 1722154793545
159. 1722154793701
160. 1722154793845
161. 1722154794001
162. 1722154794145
163. 1722154794301
164. 1722154794445
165. 1722154794601
166. 1722154794753
167. 1722154794905
168. 1722154795053
169. 1722154795205
170. 1722154795353
171. 1722154795505
172. 1722154795653
173. 1722154795805
174. 1722154795949
175. 1722154796109
176. 1722154796305
177. 1722154796453
178. 1722154796601
179. 1722154796753
180. 1722154796905
181. 1722154797057
182. 1722154797205
183. 1722154797357
184. 1722154797509
185. 1722154797661
186. 1722154797805
187. 1722154797961
188. 1722154798109
189. 1722154798257
190. 1722154798405
191. 1722154798557
192. 1722154798709
193. 1722154798857
194. 1722154799009
195. 1722154799161
196. 1722154799309
197. 1722154799461
198. 1722154799609
199. 1722154799761
200. 1722154799913
201. 1722154800061
202. 1722154800209
203. 1722154800361
204. 1722154800517
205. 1722154800661
206. 1722154800813
207. 1722154800965
208. 1722154801113
209. 1722154801265
210. 1722154801413
211. 1722154801565
212. 1722154801713
213. 1722154801865
