INITIAL
* 3:45pm Jul 28, 2024
* a0 vs a1
* 1 2 2 2 2 2 5 1 2 2 2 2 2 5
* X X X X
* X X X X
* X X X X
* X X X X
* X X X X
* X X X X
* X X X X
* X X X X
* first 1
* time 900
* 1. a8(n) d1(m)
* 2. c2(p) d5(m)
* 3. b3(P) b5(p)
* 4. c6(N) a4(G)
* 5. c8(R) a6(P)
* 6. c7(r) a7(M)
* 7. a1(G) b7(P)
* 8. c3(C) d4(p)
* 9. a5(r) d8(g)
* 10. b8(N) b1(n)
* 11. d3(P) c8-c7
* 12. c1(p) c5(M)
* 13. b6(R) d2(k)
* 14. d4-d3 b6-b5
* 15. d8-c8 b5-b6
* 16. b4(g) c5-d5
* 17. c8-c7 d5-d4
* 18. b4-a4 b8-a8
* 19. a5-b5 d4-d5
* 20. b5-b4 a3(c)
* 21. c7-c6 d6(p)
* 22. a2(C) a8-b8
* 23. a4-a5 b6-b5
* 24. a5-b5 d7(P)
* 25. b4-b3 b7-b6
* 26. b3-b4 d7-d6
* 27. c6-c5 d6-c6
* 28. a3-b3 a1-b1
* 29. c5-c6 b6-b7
* 30. b5-a5 a2-a1
* 31. d3-d4 b7-c7
* 32. c6-b6 c7-d7
* 33. c4(K) b8-b7
* 34. b2(c) c3-d3
* 35. c2-c3 d7-d8
* 36. b3-a3 a1-c1
* 37. c3-b3 a7-a8
* 38. d1-c1 a8-b8
* 39. b6-b7 d3-c3
* 40. b4-b5 d8-c8
* 41. a5-a6 c3-a3
* 42. d4-d3 c4-c3
* 43. b7-b8 b1-a1
* 44. a6-b6 d5-d4
* 45. b3-c3 c8-c7
* 46. b8-a8 a3-d3
* 47. d2-d1 d4-c4
* 48. c1-c2 a1-a2
* 49. b5-c5 c7-c6
* 50. b2-b3 a2-a1
* 51. c2-d2 d3-d1
* 52. c5-b5 c4-c5
* 53. c3-d3 a1-a2
* 54. b3-b2 c5-c4
* 55. d2-c2 c6-c7
* 56. a8-a7 c7-c8
* 57. a7-a8 a2-a3
* 58. d3-d2 c8-d8
* 59. b6-a6 a3-a2
* 60. a8-b8 a2-a3
* 61. a6-b6 c4-c3
* 62. b2-a2 d8-c8
* 63. d2-d3 c8-d8
* 64. b5-c5 c3-b3
* 65. c5-c4 b3-c3
* 66. d3-d2 a3-a4
* 67. c2-b2 c3-b3
* 68. b2-c2 a4-b4
* 69. a2-a1 b4-b5
* 70. c4-d4 b5-b4
* 71. d2-d3 b4-b5
* 72. d3-d2 d8-c8
* 73. d4-d5 b5-c5
* 74. a1-a2 b3-c3
* 75. d5-d6 c3-b3
* 76. a2-a3 c5-c6
* 77. d6-d5 c8-c7
* 78. d2-d3 c7-d7
* 79. a3-a4 d1-d2
* 80. b6-a6 c6-b6
* 81. b8-c8 b6-b5
* 82. c2-b2 b5-a5
* 83. d5-d6 a5-a6
* 84. c8-d8 d2-c2
* 85. d3-d4 c2-c1
* 86. d4-d3 b3-b4
* 87. d3-d4 d7-c7
* 88. d6-c6 c1-b1
* 89. d8-d7 b1-a1
* 90. d7-d6 a1-a2
* 91. d6-d7 b4-a4
* 92. c6-b6 a4-a5
* 93. b6-b7 a6-a7
* 94. d4-d3 a5-b5
* 95. d3-c3 c7-c8
* 96. c3-c4 a7-a6
* 97. b2-b3 c8-c7
* 98. b7-c7 b5-b4
* 99. c4-c3 b4-b3
* 100. c7-b7 a2-a3
* 101. c3-d3 b3-b2
* 102. b7-a7 a6-a7
* 103. d3-d2 a7-a6
* 104. d7-d8 a3-a4
* 105. d2-d1 b2-b1
* 106. d1-d2 b1-c1
* 107. d2-d1 a6-b6
* 108. d8-d7 c1-d1
* 109. d7-c7 b6-b5
* 110. c7-b7 d1-c1
* 111. b7-a7 b5-b6
* 112. a7-a6 b6-c6
* 113. a6-b6 c6-c5
* 114. b6-a6 c5-d5
* 115. a6-a5 c1-c2
* 116. a5-b5 a4-b4
* 117. b5-b6 c2-c3
* 118. b6-b7 b4-c4
* 119. b7-a7 c3-c2
* 120. a7-a6 d5-d6
* 121. a6-b6 c4-c3
* 122. b6-b7 c3-c4
* 123. b7-b6 d6-d7
* 124. b6-b7 c2-d2
* 125. b7-b8 c4-c5
* 126. b8-b7 d2-c2
* 127. b7-b8 c2-d2
* 128. b8-b7 d2-c2
* 129. b7-b8 d7-d8
* 130. b8-c8 d8-c8
* NoMove a1 Wins 0.000000,1.000000
* Comment 0 0
0. 1722152702276
1. 1722152702276
2. 1722152702421
3. 1722152702569
4. 1722152702721
5. 1722152702869
6. 1722152703021
7. 1722152703169
8. 1722152703325
9. 1722152703473
10. 1722152703621
11. 1722152703777
12. 1722152703925
13. 1722152704073
14. 1722152704225
15. 1722152704373
16. 1722152704525
17. 1722152704673
18. 1722152704829
19. 1722152704973
20. 1722152705125
21. 1722152705273
22. 1722152705429
23. 1722152705577
24. 1722152705729
25. 1722152705877
26. 1722152706029
27. 1722152706177
28. 1722152706329
29. 1722152706477
30. 1722152706633
31. 1722152706777
32. 1722152706929
33. 1722152707077
34. 1722152707233
35. 1722152707381
36. 1722152707533
37. 1722152707685
38. 1722152707837
39. 1722152707981
40. 1722152708137
41. 1722152708281
42. 1722152708433
43. 1722152708581
44. 1722152708737
45. 1722152708885
46. 1722152709033
47. 1722152709185
48. 1722152709337
49. 1722152709485
50. 1722152709637
51. 1722152709785
52. 1722152709937
53. 1722152710085
54. 1722152710237
55. 1722152710385
56. 1722152710537
57. 1722152710685
58. 1722152710837
59. 1722152710989
60. 1722152711137
61. 1722152711289
62. 1722152711437
63. 1722152711589
64. 1722152711741
65. 1722152711889
66. 1722152712041
67. 1722152712189
68. 1722152712341
69. 1722152712489
70. 1722152712641
71. 1722152712789
72. 1722152712941
73. 1722152713093
74. 1722152713241
75. 1722152713393
76. 1722152713549
77. 1722152713693
78. 1722152713845
79. 1722152713993
80. 1722152714145
81. 1722152714293
82. 1722152714449
83. 1722152714593
84. 1722152714745
85. 1722152714901
86. 1722152715045
87. 1722152715197
88. 1722152715345
89. 1722152715497
90. 1722152715645
91. 1722152715797
92. 1722152715945
93. 1722152716097
94. 1722152716249
95. 1722152716401
96. 1722152716549
97. 1722152716701
98. 1722152716849
99. 1722152717001
100. 1722152717149
101. 1722152717305
102. 1722152717449
103. 1722152717601
104. 1722152717749
105. 1722152717901
106. 1722152718049
107. 1722152718205
108. 1722152718349
109. 1722152718505
110. 1722152718649
111. 1722152718805
112. 1722152718953
113. 1722152719105
114. 1722152719253
115. 1722152719405
116. 1722152719553
117. 1722152719705
118. 1722152719853
119. 1722152720009
120. 1722152720153
121. 1722152720309
122. 1722152720453
123. 1722152720609
124. 1722152720753
125. 1722152720909
126. 1722152721053
127. 1722152721209
128. 1722152721353
129. 1722152721509
130. 1722152721653
131. 1722152721813
132. 1722152722005
133. 1722152722165
134. 1722152722357
135. 1722152722513
136. 1722152722657
137. 1722152722813
138. 1722152722957
139. 1722152723117
140. 1722152723309
141. 1722152723465
142. 1722152723613
143. 1722152723765
144. 1722152723909
145. 1722152724065
146. 1722152724213
147. 1722152724369
148. 1722152724561
149. 1722152724717
150. 1722152724861
151. 1722152725017
152. 1722152725161
153. 1722152725321
154. 1722152725513
155. 1722152725673
156. 1722152725865
157. 1722152726021
158. 1722152726165
159. 1722152726321
160. 1722152726465
161. 1722152726621
162. 1722152726765
163. 1722152726929
164. 1722152727121
165. 1722152727273
166. 1722152727417
167. 1722152727573
168. 1722152727717
169. 1722152727877
170. 1722152728065
171. 1722152728225
172. 1722152728417
173. 1722152728577
174. 1722152728769
175. 1722152728929
176. 1722152729117
177. 1722152729277
178. 1722152729469
179. 1722152729629
180. 1722152729821
181. 1722152729985
182. 1722152730169
183. 1722152730329
184. 1722152730521
185. 1722152730681
186. 1722152730869
187. 1722152731033
188. 1722152731221
189. 1722152731385
190. 1722152731573
191. 1722152731733
192. 1722152731921
193. 1722152732085
194. 1722152732273
195. 1722152732437
196. 1722152732625
197. 1722152732785
198. 1722152732973
199. 1722152733137
200. 1722152733325
201. 1722152733489
202. 1722152733677
203. 1722152733841
204. 1722152734029
205. 1722152734189
206. 1722152734377
207. 1722152734541
208. 1722152734729
209. 1722152734893
210. 1722152735081
211. 1722152735245
212. 1722152735429
213. 1722152735593
214. 1722152735781
215. 1722152735945
216. 1722152736133
217. 1722152736297
218. 1722152736481
219. 1722152736645
220. 1722152736833
221. 1722152736997
222. 1722152737185
223. 1722152737349
224. 1722152737533
225. 1722152737701
226. 1722152737885
227. 1722152738049
228. 1722152738237
229. 1722152738405
230. 1722152738585
231. 1722152738749
232. 1722152738937
233. 1722152739101
234. 1722152739289
235. 1722152739453
236. 1722152739637
237. 1722152739801
238. 1722152739989
239. 1722152740153
240. 1722152740345
241. 1722152740505
242. 1722152740689
243. 1722152740853
244. 1722152741041
245. 1722152741205
246. 1722152741397
247. 1722152741557
248. 1722152741745
249. 1722152741905
250. 1722152742093
251. 1722152742257
252. 1722152742449
253. 1722152742609
254. 1722152742793
255. 1722152742957
256. 1722152743145
257. 1722152743309
258. 1722152743501
259. 1722152743661
260. 1722152743849
