INITIAL
* 4:45pm Jul 28, 2024
* a0 vs a1
* 1 2 2 2 2 2 5 1 2 2 2 2 2 5
* X X X X
* X X X X
* X X X X
* X X X X
* X X X X
* X X X X
* X X X X
* X X X X
* first 1
* time 900
* 1. a8(g) c1(P)
* 2. c3(P) c7(R)
* 3. b3(K) b5(p)
* 4. c8(p) d5(m)
* 5. d1(M) d7(g)
* 6. a1(k) b7(N)
* 7. b8(C) c5(r)
* 8. c4(G) a7(N)
* 9. a4(p) b4(n)
* 10. a5(P) a2(c)
* 11. b1(P) d4(c)
* 12. b6(p) d6(r)
* 13. a3(C) a5-a4
* 14. b2(m) b3-b2
* 15. d8(p) c4-d4
* 16. a2-a4 a6(G)
* 17. a1-a2 b2-a2
* 18. b4-c4 a2-b2
* 19. b5-b4 a6-a5
* 20. a8-a7 c3-b3
* 21. b4-b5 d2(M)
* 22. c4-b4 c6(n)
* 23. b4-b3 b1-a1
* 24. b6-a6 b2-b3
* 25. a6-b6 a3-a2
* 26. a4-a3 b3-b4
* 27. a3-b3 a2-b2
* 28. d7-c7 c2(P)
* 29. d3(R) d3-c3
* 30. d8-d7 d4-d3
* 31. b5-b4 a5-a4
* 32. c8-d8 c3-c4
* 33. c7-b7 a1-b1
* 34. b3-b1 c4-c3
* 35. b4-b3 b2-a2
* 36. b1-a1 c3-c4
* 37. c5-c4 d3-c3
* 38. b3-b2 b8-a8
* 39. c6-c5 d2-d3
* 40. c5-c6 a4-a3
* 41. c6-c7 d1-d2
* 42. c4-d4 c3-b3
* 43. b2-b1 b3-c3
* 44. b6-c6 d2-d1
* 45. b7-b8 c2-b2
* 46. b1-c1 a8-d8
* 47. a7-a8 d3-d2
* 48. d5-c5 a3-a4
* 49. c6-b6 c3-c2
* 50. b6-b5 d2-d3
* 51. c7-b7 a4-b4
* 52. c5-c6 b4-c4
* 53. a1-b1 d8-c8
* 54. b7-c7 c4-c5
* 55. d4-c4 d3-d4
* 56. b5-a5 a2-a1
* 57. b1-d1 c8-d8
* 58. b8-b7 c5-c6
* 59. a8-a7 b2-b1
* 60. a5-b5 a1-a2
* 61. a7-a6 b1-b2
* 62. c1-b1 c6-c5
* 63. b1-b2 d4-d5
* 64. b2-b3 c5-c4
* 65. b7-b6 c2-d2
* 66. a6-a5 c4-c3
* 67. d1-c1 c3-b3
* 68. c7-c8 d2-c2
* 69. b5-b4 b3-b4
* 70. c1-b1 a2-a3
* 71. b6-b5 d5-d6
* 72. b1-b2 d6-c6
* 73. a5-a6 c6-c7
* 74. a6-a5 c2-b2
* 75. c8-d8 b4-c4
* 76. b5-b6 b2-c2
* 77. a5-a4 a3-b3
* 78. b6-c6 c2-d2
* 79. c6-c5 b3-c3
* 80. c5-d5 c3-d3
* 81. d8-c8 c4-b4
* 82. d7-d8 d3-c3
* 83. d5-c5 b4-a4
* 84. c5-d5 c3-c2
* 85. d5-d4 c2-c3
* 86. d8-d7 d2-d1
* 87. c8-b8 c7-c6
* 88. b8-b7 a4-a5
* 89. d4-c4 a5-a6
* 90. c4-c3 a6-a7
* 91. b7-b6 d1-d2
* 92. b6-a6 a7-a8
* 93. c3-c2 a8-b8
* 94. d7-d8 d2-c2
* 95. d8-d7 c2-d2
* 96. d7-d8 c6-c7
* 97. a6-b6 d2-d1
* 98. b6-a6 d1-d2
* 99. d8-d7 c7-d7
* 100. a6-a5 b8-a8
* 101. a5-a6 d7-d8
* 102. a6-b6 d8-d7
* 103. b6-c6 d7-c7
* 104. c6-d6 d2-d1
* 105. d6-d5 d1-d2
* 106. d5-c5 c7-b7
* 107. c5-c6 a8-b8
* 108. c6-d6 d2-d1
* 109. d6-c6 d1-c1
* 110. c6-b6 b7-b6
* NoMove a1 Wins 0.000000,1.000000
* Comment 0 0
0. 1722156322960
1. 1722156322960
2. 1722156323145
3. 1722156323301
4. 1722156323449
5. 1722156323605
6. 1722156323797
7. 1722156323953
8. 1722156324097
9. 1722156324257
10. 1722156324453
11. 1722156324605
12. 1722156324753
13. 1722156324905
14. 1722156325049
15. 1722156325209
16. 1722156325401
17. 1722156325557
18. 1722156325701
19. 1722156325861
20. 1722156326053
21. 1722156326209
22. 1722156326353
23. 1722156326513
24. 1722156326709
25. 1722156326861
26. 1722156327009
27. 1722156327161
28. 1722156327309
29. 1722156327461
30. 1722156327605
31. 1722156327765
32. 1722156327957
33. 1722156328113
34. 1722156328257
35. 1722156328417
36. 1722156328609
37. 1722156328765
38. 1722156328909
39. 1722156329065
40. 1722156329209
41. 1722156329365
42. 1722156329509
43. 1722156329669
44. 1722156329861
45. 1722156330017
46. 1722156330161
47. 1722156330321
48. 1722156330517
49. 1722156330669
50. 1722156330813
51. 1722156330969
52. 1722156331113
53. 1722156331273
54. 1722156331469
55. 1722156331625
56. 1722156331821
57. 1722156331977
58. 1722156332165
59. 1722156332329
60. 1722156332517
61. 1722156332673
62. 1722156332817
63. 1722156332977
64. 1722156333169
65. 1722156333325
66. 1722156333473
67. 1722156333629
68. 1722156333821
69. 1722156333977
70. 1722156334125
71. 1722156334281
72. 1722156334477
73. 1722156334633
74. 1722156334821
75. 1722156334985
76. 1722156335173
77. 1722156335329
78. 1722156335473
79. 1722156335633
80. 1722156335825
81. 1722156335985
82. 1722156336181
83. 1722156336337
84. 1722156336529
85. 1722156336685
86. 1722156336877
87. 1722156337033
88. 1722156337177
89. 1722156337333
90. 1722156337477
91. 1722156337637
92. 1722156337829
93. 1722156337985
94. 1722156338129
95. 1722156338293
96. 1722156338481
97. 1722156338637
98. 1722156338781
99. 1722156338941
100. 1722156339133
101. 1722156339289
102. 1722156339433
103. 1722156339589
104. 1722156339733
105. 1722156339889
106. 1722156340033
107. 1722156340189
108. 1722156340333
109. 1722156340493
110. 1722156340685
111. 1722156340845
112. 1722156341033
113. 1722156341197
114. 1722156341389
115. 1722156341545
116. 1722156341741
117. 1722156341893
118. 1722156342037
119. 1722156342193
120. 1722156342337
121. 1722156342493
122. 1722156342637
123. 1722156342793
124. 1722156342937
125. 1722156343097
126. 1722156343289
127. 1722156343445
128. 1722156343589
129. 1722156343753
130. 1722156343945
131. 1722156344101
132. 1722156344293
133. 1722156344453
134. 1722156344641
135. 1722156344801
136. 1722156344997
137. 1722156345149
138. 1722156345293
139. 1722156345449
140. 1722156345593
141. 1722156345749
142. 1722156345893
143. 1722156346053
144. 1722156346245
145. 1722156346401
146. 1722156346545
147. 1722156346701
148. 1722156346849
149. 1722156347005
150. 1722156347201
151. 1722156347353
152. 1722156347501
153. 1722156347657
154. 1722156347853
155. 1722156348005
156. 1722156348149
157. 1722156348309
158. 1722156348501
159. 1722156348657
160. 1722156348805
161. 1722156348957
162. 1722156349105
163. 1722156349257
164. 1722156349405
165. 1722156349565
166. 1722156349753
167. 1722156349909
168. 1722156350053
169. 1722156350209
170. 1722156350361
171. 1722156350513
172. 1722156350705
173. 1722156350865
174. 1722156351061
175. 1722156351217
176. 1722156351409
177. 1722156351565
178. 1722156351709
179. 1722156351865
180. 1722156352009
181. 1722156352165
182. 1722156352309
183. 1722156352465
184. 1722156352609
185. 1722156352765
186. 1722156352913
187. 1722156353069
188. 1722156353265
189. 1722156353421
190. 1722156353613
191. 1722156353769
192. 1722156353913
193. 1722156354073
194. 1722156354269
195. 1722156354421
196. 1722156354569
197. 1722156354721
198. 1722156354865
199. 1722156355021
200. 1722156355165
201. 1722156355321
202. 1722156355469
203. 1722156355625
204. 1722156355817
205. 1722156355973
206. 1722156356117
207. 1722156356273
208. 1722156356421
209. 1722156356577
210. 1722156356769
211. 1722156356929
212. 1722156357125
213. 1722156357277
214. 1722156357421
215. 1722156357577
216. 1722156357721
217. 1722156357877
218. 1722156358021
219. 1722156358177
220. 1722156358325
