INITIAL
* 1:50pm Jul 29, 2024
* a1 vs a0
* 1 2 2 2 2 2 5 1 2 2 2 2 2 5
* X X X X
* X X X X
* X X X X
* X X X X
* X X X X
* X X X X
* X X X X
* X X X X
* first 1
* time 900
* 1. b3(r) b4(P)
* 2. d2(g) b2(P)
* 3. a1(P) c7(N)
* 4. a4(p) c6(R)
* 5. b7(p) d1(n)
* 6. b6(K) a2(N)
* 7. c4(p) a3(C)
* 8. c3(R) b4-c4
* 9. a5(p) c3-b3
* 10. a6(P) a6-a5
* 11. c2(g) b6-a6
* 12. c8(r) d7(G)
* 13. c5(G) a6-b6
* 14. c1(p) b5(P)
* 15. d8(M) b3-b4
* 16. a4-a5 b1(m)
* 17. c8-c7 b4-b3
* 18. c7-c6 d7-c7
* 19. a8(c) b3-b4
* 20. d3(k) d4(M)
* 21. a7(C) c5-c6
* 22. b8(n) d5(c)
* 23. d5-c5 a7-a6
* 24. d3-d4 d6(m)
* 25. a8-a7 b2-b3
* 26. a7-a8 c6-c5
* 27. a5-b5 a2-b2
* 28. b5-a5 d8-d7
* 29. d6-c6 a3-a4
* 30. b7-a7 d7-d8
* 31. d4-d3 d8-d7
* 32. b1-a1 a4-a3
* 33. a8-a6 b2-b1
* 34. a7-a8 c5-d5
* 35. c6-c5 b1-c1
* 36. b8-b7 c4-c3
* 37. a8-b8 d7-d6
* 38. c5-b5 b6-c6
* 39. a6-a7 c7-c8
* 40. a7-a8 d5-c5
* 41. d1-c1 c8-c7
* 42. b7-a7 c5-d5
* 43. b8-c8 b4-c4
* 44. c8-b8 c4-b4
* 45. a7-a6 c6-b6
* 46. a8-a7 d5-d4
* 47. a7-a8 d6-d5
* 48. a1-b1 b6-b5
* 49. b1-b2 c7-d7
* 50. b8-c8 a3-a6
* 51. c8-b8 c3-d3
* 52. a5-b5 a6-b6
* 53. d2-d3 b3-c3
* 54. c2-d2 b6-a6
* 55. b8-b7 a6-a7
* 56. b2-b3 b4-c4
* 57. d2-c2 d5-d6
* 58. b7-b8 a7-b7
* 59. b3-a3 c4-b4
* 60. d3-d2 b7-c7
* 61. d2-d3 b4-b5
* 62. b8-c8 b5-a5
* 63. c2-c3 d4-d3
* 64. c3-b3 c7-b7
* 65. c1-c2 d6-c6
* 66. a8-b8 c6-c5
* 67. c8-d8 d7-d8
* 68. b8-a8 a5-b5
* 69. a8-a7 d8-c8
* 70. b3-c3 b5-b4
* 71. a7-a6 b4-a4
* 72. a3-b3 d3-c3
* 73. b3-a3 c8-b8
* 74. c2-c1 a4-a5
* 75. a3-a4 c5-c4
* 76. a4-a3 c3-d3
* 77. c1-c2 d3-d2
* 78. a6-a7 a5-a6
* 79. a3-a2 c4-d4
* 80. a2-a3 a6-b6
* 81. a7-a8 b6-b5
* 82. a8-a7 d2-d1
* 83. a7-a8 d4-d5
* 84. c2-d2 b5-a5
* 85. a3-a4 d1-d2
* 86. a4-a5 d5-d6
* 87. a5-a4 b7-b6
* 88. a4-a3 b6-a6
* 89. a3-a4 a6-a5
* 90. a8-a7 d2-d1
* 91. a7-a6 d6-c6
* 92. a4-b4 c6-c5
* 93. b4-c4 d1-c1
* 94. c4-b4 a5-b5
* 95. a6-b6 c5-c4
* 96. b4-b3 b8-b7
* 97. b3-b2 b7-b8
* 98. b2-b1 c4-c3
* 99. b6-b7 b8-a8
* 100. b7-a7 a8-a7
* 101. b1-b2 c3-c4
* 102. b2-c2 a7-a8
* 103. c2-b2 b5-b6
* 104. b2-c2 b6-a6
* 105. c2-c3 c4-c3
* NoMove a0 Wins 0.000000,1.000000
* Comment 0 0
0. 1722232204014
1. 1722232204014
2. 1722232204217
3. 1722232204409
4. 1722232204569
5. 1722232204757
6. 1722232204921
7. 1722232205109
8. 1722232205277
9. 1722232205465
10. 1722232205625
11. 1722232205813
12. 1722232205973
13. 1722232206165
14. 1722232206325
15. 1722232206517
16. 1722232206677
17. 1722232206865
18. 1722232207029
19. 1722232207221
20. 1722232207381
21. 1722232207565
22. 1722232207729
23. 1722232207917
24. 1722232208081
25. 1722232208269
26. 1722232208433
27. 1722232208621
28. 1722232208785
29. 1722232208977
30. 1722232209133
31. 1722232209321
32. 1722232209489
33. 1722232209673
34. 1722232209837
35. 1722232210025
36. 1722232210185
37. 1722232210377
38. 1722232210541
39. 1722232210729
40. 1722232210889
41. 1722232211077
42. 1722232211241
43. 1722232211433
44. 1722232211593
45. 1722232211777
46. 1722232211941
47. 1722232212129
48. 1722232212293
49. 1722232212481
50. 1722232212645
51. 1722232212833
52. 1722232212993
53. 1722232213185
54. 1722232213349
55. 1722232213537
56. 1722232213701
57. 1722232213885
58. 1722232214045
59. 1722232214237
60. 1722232214397
61. 1722232214585
62. 1722232214749
63. 1722232214937
64. 1722232215097
65. 1722232215289
66. 1722232215449
67. 1722232215637
68. 1722232215801
69. 1722232215989
70. 1722232216149
71. 1722232216345
72. 1722232216501
73. 1722232216689
74. 1722232216853
75. 1722232217041
76. 1722232217205
77. 1722232217393
78. 1722232217553
79. 1722232217745
80. 1722232217905
81. 1722232218093
82. 1722232218257
83. 1722232218449
84. 1722232218605
85. 1722232218801
86. 1722232218957
87. 1722232219149
88. 1722232219313
89. 1722232219497
90. 1722232219657
91. 1722232219853
92. 1722232220013
93. 1722232220201
94. 1722232220361
95. 1722232220549
96. 1722232220713
97. 1722232220901
98. 1722232221061
99. 1722232221253
100. 1722232221413
101. 1722232221609
102. 1722232221765
103. 1722232221953
104. 1722232222117
105. 1722232222305
106. 1722232222465
107. 1722232222657
108. 1722232222821
109. 1722232223013
110. 1722232223173
111. 1722232223361
112. 1722232223517
113. 1722232223709
114. 1722232223869
115. 1722232224061
116. 1722232224221
117. 1722232224409
118. 1722232224573
119. 1722232224765
120. 1722232224921
121. 1722232225113
122. 1722232225273
123. 1722232225465
124. 1722232225621
125. 1722232225813
126. 1722232225973
127. 1722232226165
128. 1722232226325
129. 1722232226517
130. 1722232226677
131. 1722232226865
132. 1722232227025
133. 1722232227217
134. 1722232227381
135. 1722232227569
136. 1722232227733
137. 1722232227917
138. 1722232228077
139. 1722232228269
140. 1722232228429
141. 1722232228621
142. 1722232228781
143. 1722232228969
144. 1722232229129
145. 1722232229321
146. 1722232229485
147. 1722232229673
148. 1722232229833
149. 1722232230025
150. 1722232230181
151. 1722232230373
152. 1722232230533
153. 1722232230725
154. 1722232230889
155. 1722232231077
156. 1722232231241
157. 1722232231429
158. 1722232231585
159. 1722232231777
160. 1722232231941
161. 1722232232129
162. 1722232232289
163. 1722232232477
164. 1722232232637
165. 1722232232833
166. 1722232232993
167. 1722232233181
168. 1722232233345
169. 1722232233533
170. 1722232233689
171. 1722232233881
172. 1722232234045
173. 1722232234233
174. 1722232234397
175. 1722232234585
176. 1722232234749
177. 1722232234933
178. 1722232235093
179. 1722232235285
180. 1722232235445
181. 1722232235637
182. 1722232235797
183. 1722232235989
184. 1722232236149
185. 1722232236341
186. 1722232236497
187. 1722232236689
188. 1722232236849
189. 1722232237041
190. 1722232237205
191. 1722232237393
192. 1722232237553
193. 1722232237745
194. 1722232237901
195. 1722232238097
196. 1722232238257
197. 1722232238441
198. 1722232238609
199. 1722232238793
200. 1722232238957
201. 1722232239149
202. 1722232239309
203. 1722232239493
204. 1722232239657
205. 1722232239845
206. 1722232240009
207. 1722232240197
208. 1722232240365
209. 1722232240553
210. 1722232240709
