INITIAL
* 1:55pm Jul 29, 2024
* a1 vs a0
* 1 2 2 2 2 2 5 1 2 2 2 2 2 5
* X X X X
* X X X X
* X X X X
* X X X X
* X X X X
* X X X X
* X X X X
* X X X X
* first 0
* time 900
* 1. a7(P) b4(M)
* 2. a4(C) b5(m)
* 3. c7(r) b5-b4
* 4. c4(N) d5(P)
* 5. a3(M) c1(r)
* 6. b2(P) b6(p)
* 7. b8(R) b6-b5
* 8. d2(c) a2(C)
* 9. c6(n) a8(n)
* 10. c8(p) c2(N)
* 11. b8-c8 d2-b2
* 12. d4(G) d7(G)
* 13. d6(R) a5(g)
* 14. c8-b8 b4-c4
* 15. d1(p) b3(p)
* 16. b1(g) b5-b6
* 17. b7(K) c7-c8
* 18. a6(P) d3(c)
* 19. d7-c7 d3-d2
* 20. c3(k) c3-d3
* 21. c7-c6 c4-b4
* 22. b8-a8 d2-d4
* 23. a3-b3 b4-b5
* 24. a4-b4 b6-a6
* 25. b7-c7 b5-b4
* 26. c2-c3 c8-b8
* 27. a1(P) b2-c2
* 28. c7-b7 c2-d2
* 29. a2-b2 b1-b2
* 30. b3-a3 d8(m)
* 31. a3-a4 d2-c2
* 32. a8-b8 d4-d6
* 33. d5-d4 a6-b6
* 34. a7-a6 d8-d7
* 35. b7-a7 b4-b5
* 36. c3-c2 b2-b3
* 37. a4-a3 a5-a4
* 38. b8-b7 d3-d2
* 39. a1-a2 d2-c2
* 40. a6-a5 d6-d5
* 41. d4-d3 d1-d2
* 42. a2-a1 d7-d6
* 43. c6-b6 b3-a3
* 44. b6-c6 c1-b1
* 45. b7-b8 d2-d3
* 46. a7-b7 d3-d2
* 47. b7-c7 d2-d3
* 48. a1-a2 b1-a1
* 49. c7-c8 d3-d2
* 50. c8-d8 c5(p)
* 51. b8-a8 c2-c1
* 52. c6-b6 b5-a5
* 53. b6-b5 c1-d1
* 54. b5-b4 a4-b4
* 55. a8-b8 d5-d8
* 56. b8-b7 b4-b5
* 57. b7-b8 a3-a4
* 58. b8-a8 d6-d7
* 59. a2-a3 a5-a6
* 60. a8-a7 a1-b1
* 61. a3-b3 b5-a5
* 62. b3-b4 c5-c6
* 63. a7-b7 d2-d3
* 64. b7-b6 a6-a7
* 65. b6-b7 a7-a6
* 66. b7-c7 a6-a7
* 67. b4-b5 d7-d6
* 68. b5-c5 d6-d5
* 69. c5-b5 d3-d4
* 70. c7-c8 d1-c1
* 71. c8-d8 a5-b5
* 72. d8-c8 d5-d6
* 73. c8-c7 b5-b6
* 74. c7-c6 a7-a6
* 75. c6-c7 a4-a3
* 76. c7-c6 d6-c6
* NoMove a0 Wins 0.000000,1.000000
* Comment 0 0
0. 1722232550637
1. 1722232550637
2. 1722232550825
3. 1722232550985
4. 1722232551177
5. 1722232551333
6. 1722232551529
7. 1722232551685
8. 1722232551877
9. 1722232552033
10. 1722232552177
11. 1722232552333
12. 1722232552477
13. 1722232552637
14. 1722232552829
15. 1722232552985
16. 1722232553129
17. 1722232553285
18. 1722232553429
19. 1722232553589
20. 1722232553781
21. 1722232553937
22. 1722232554085
23. 1722232554237
24. 1722232554381
25. 1722232554537
26. 1722232554681
27. 1722232554837
28. 1722232554981
29. 1722232555137
30. 1722232555285
31. 1722232555441
32. 1722232555633
33. 1722232555789
34. 1722232555933
35. 1722232556089
36. 1722232556237
37. 1722232556389
38. 1722232556537
39. 1722232556693
40. 1722232556837
41. 1722232556993
42. 1722232557137
43. 1722232557293
44. 1722232557441
45. 1722232557593
46. 1722232557737
47. 1722232557893
48. 1722232558037
49. 1722232558197
50. 1722232558389
51. 1722232558545
52. 1722232558689
53. 1722232558849
54. 1722232559041
55. 1722232559201
56. 1722232559393
57. 1722232559549
58. 1722232559693
59. 1722232559853
60. 1722232560045
61. 1722232560197
62. 1722232560345
63. 1722232560501
64. 1722232560645
65. 1722232560801
66. 1722232560949
67. 1722232561101
68. 1722232561249
69. 1722232561401
70. 1722232561553
71. 1722232561705
72. 1722232561849
73. 1722232562001
74. 1722232562149
75. 1722232562301
76. 1722232562449
77. 1722232562609
78. 1722232562805
79. 1722232562957
80. 1722232563101
81. 1722232563253
82. 1722232563401
83. 1722232563557
84. 1722232563701
85. 1722232563857
86. 1722232564005
87. 1722232564157
88. 1722232564309
89. 1722232564457
90. 1722232564609
91. 1722232564757
92. 1722232564905
93. 1722232565057
94. 1722232565205
95. 1722232565361
96. 1722232565509
97. 1722232565665
98. 1722232565861
99. 1722232566009
100. 1722232566161
101. 1722232566309
102. 1722232566461
103. 1722232566613
104. 1722232566761
105. 1722232566913
106. 1722232567065
107. 1722232567217
108. 1722232567409
109. 1722232567565
110. 1722232567713
111. 1722232567865
112. 1722232568013
113. 1722232568165
114. 1722232568313
115. 1722232568465
116. 1722232568613
117. 1722232568765
118. 1722232568913
119. 1722232569065
120. 1722232569217
121. 1722232569365
122. 1722232569517
123. 1722232569673
124. 1722232569865
125. 1722232570017
126. 1722232570165
127. 1722232570317
128. 1722232570465
129. 1722232570621
130. 1722232570765
131. 1722232570921
132. 1722232571069
133. 1722232571221
134. 1722232571369
135. 1722232571521
136. 1722232571669
137. 1722232571821
138. 1722232571969
139. 1722232572121
140. 1722232572269
141. 1722232572429
142. 1722232572625
143. 1722232572773
144. 1722232572925
145. 1722232573073
146. 1722232573221
147. 1722232573377
148. 1722232573521
149. 1722232573677
150. 1722232573825
151. 1722232573981
152. 1722232574173
