INITIAL
* 1:58pm Jul 29, 2024
* a0 vs a1
* 1 2 2 2 2 2 5 1 2 2 2 2 2 5
* X X X X
* X X X X
* X X X X
* X X X X
* X X X X
* X X X X
* X X X X
* X X X X
* first 1
* time 900
* 1. a8(k) b6(g)
* 2. c3(R) a3(N)
* 3. b4(G) c6(g)
* 4. c8(P) c4(m)
* 5. d2(C) d7(p)
* 6. a1(c) c1(R)
* 7. c4-c3 c7(m)
* 8. a1-c1 d8(P)
* 9. d1(P) b3(P)
* 10. a4(c) b2(p)
* 11. a5(p) b1(r)
* 12. d3(r) b4-c4
* 13. d4(n) a2(n)
* 14. b5(M) b8(P)
* 15. c7-c8 b8-a8
* 16. b6-b5 b3-b2
* 17. c3-b3 a3-a4
* 18. d3-c3 c4-c3
* 19. d7-c7 b7(C)
* 20. c1-c3 c2(N)
* 21. b5-b6 c2-c1
* 22. c7-d7 d5(p)
* 23. d6(K) a4-a3
* 24. b1-c1 d2-c2
* 25. b6-b7 a6(p)
* 26. a2-a1 c2-d2
* 27. a5-b5 a7(G)
* 28. b7-a7 d6-c6
* 29. b3-b4 a3-a4
* 30. a6-b6 c6-d6
* 31. d7-d8 d2-d3
* 32. a7-a8 d6-d7
* 33. b4-b3 b2-a2
* 34. c8-b8 d3-d2
* 35. c5(M) d2-d3
* 36. b3-b2 d7-d6
* 37. c3-c4 c5-b5
* 38. b6-c6 b5-a5
* 39. d4-d3 a2-a3
* 40. a8-a7 a4-b4
* 41. b8-a8 a5-a6
* 42. a1-a2 b4-b3
* 43. c1-c2 d1-d2
* 44. a2-a1 d2-d1
* 45. d5-d6 b3-c3
* 46. a1-b1 a3-a4
* 47. d8-d7 a4-a5
* 48. d7-c7 a6-b6
* 49. c2-c3 d1-c1
* 50. b2-b3 a5-a6
* 51. d3-d2 b6-b5
* 52. a7-a6 b5-b6
* 53. c4-c1 b6-c6
* 54. d2-d3 c6-b6
* 55. a6-a5 b6-a6
* 56. c7-b7 a6-b6
* 57. b1-b2 b6-b5
* 58. a5-a4 b5-b4
* 59. a8-a7 b4-b5
* 60. a7-a8 b5-b6
* 61. b2-b1 b6-a6
* 62. c3-c2 a6-b6
* 63. d3-d2 b6-b5
* 64. b7-b8 b5-c5
* 65. d2-d1 c5-b5
* 66. a8-a7 b5-c5
* 67. b3-b2 c5-d5
* 68. a7-a6 d5-d6
* 69. c2-d2 d6-d7
* 70. a4-b4 d7-d8
* 71. b8-a8 d8-c8
* 72. b2-b3 c8-d8
* 73. d2-c2 d8-d7
* 74. c2-b2 d7-d8
* 75. d1-d2 d8-c8
* 76. d2-c2 c8-d8
* 77. c2-d2 d8-c8
* 78. c1-d1 c8-c7
* 79. a8-a7 c7-c8
* 80. b2-a2 c8-b8
* 81. b4-a4 b8-c8
* 82. a7-a8 c8-b8
* 83. b3-b2 b8-c8
* 84. a6-a5 c8-c7
* 85. b1-a1 c7-c6
* 86. a5-a6 c6-c5
* 87. b2-c2 c5-c4
* 88. c2-b2 c4-c5
* 89. a4-a5 c5-c6
* 90. a2-a3 c6-c7
* 91. a5-a4 c7-b7
* 92. a6-a7 b7-c7
* 93. b2-b1 c7-b7
* 94. b1-c1 b7-b8
* 95. a7-a6 b8-c8
* 96. a6-b6 c8-c7
* 97. a3-b3 c7-b7
* 98. a8-b8 b7-c7
* 99. b8-c8 c7-c6
* 100. d2-d3 c6-c5
* 101. d3-c3 c5-b5
* 102. b3-b2 b5-a5
* 103. b6-a6 a5-b5
* 104. c8-b8 b5-b4
* 105. a6-a7 b4-c4
* 106. b8-a8 c4-b4
* 107. a4-b4
* NoMove a0 Wins 1.000000,0.000000
* Comment 0 0
0. 1722232728724
1. 1722232728724
2. 1722232728869
3. 1722232729017
4. 1722232729169
5. 1722232729321
6. 1722232729469
7. 1722232729617
8. 1722232729769
9. 1722232729921
10. 1722232730069
11. 1722232730225
12. 1722232730369
13. 1722232730521
14. 1722232730673
15. 1722232730825
16. 1722232730973
17. 1722232731121
18. 1722232731273
19. 1722232731421
20. 1722232731573
21. 1722232731721
22. 1722232731873
23. 1722232732021
24. 1722232732173
25. 1722232732329
26. 1722232732477
27. 1722232732625
28. 1722232732777
29. 1722232732925
30. 1722232733077
31. 1722232733229
32. 1722232733381
33. 1722232733529
34. 1722232733677
35. 1722232733825
36. 1722232733981
37. 1722232734129
38. 1722232734277
39. 1722232734433
40. 1722232734585
41. 1722232734733
42. 1722232734885
43. 1722232735033
44. 1722232735181
45. 1722232735333
46. 1722232735481
47. 1722232735637
48. 1722232735785
49. 1722232735937
50. 1722232736085
51. 1722232736233
52. 1722232736381
53. 1722232736533
54. 1722232736685
55. 1722232736837
56. 1722232736989
57. 1722232737133
58. 1722232737285
59. 1722232737433
60. 1722232737589
61. 1722232737737
62. 1722232737889
63. 1722232738041
64. 1722232738189
65. 1722232738341
66. 1722232738485
67. 1722232738637
68. 1722232738785
69. 1722232738937
70. 1722232739093
71. 1722232739237
72. 1722232739389
73. 1722232739541
74. 1722232739693
75. 1722232739841
76. 1722232739993
77. 1722232740141
78. 1722232740289
79. 1722232740441
80. 1722232740589
81. 1722232740741
82. 1722232740889
83. 1722232741041
84. 1722232741197
85. 1722232741341
86. 1722232741493
87. 1722232741645
88. 1722232741793
89. 1722232741945
90. 1722232742093
91. 1722232742245
92. 1722232742393
93. 1722232742545
94. 1722232742697
95. 1722232742845
96. 1722232742993
97. 1722232743145
98. 1722232743297
99. 1722232743449
100. 1722232743597
101. 1722232743749
102. 1722232743897
103. 1722232744049
104. 1722232744201
105. 1722232744353
106. 1722232744497
107. 1722232744649
108. 1722232744797
109. 1722232744949
110. 1722232745101
111. 1722232745249
112. 1722232745397
113. 1722232745553
114. 1722232745705
115. 1722232745853
116. 1722232746001
117. 1722232746149
118. 1722232746301
119. 1722232746453
120. 1722232746601
121. 1722232746753
122. 1722232746901
123. 1722232747057
124. 1722232747201
125. 1722232747357
126. 1722232747501
127. 1722232747653
128. 1722232747805
129. 1722232747953
130. 1722232748105
131. 1722232748257
132. 1722232748409
133. 1722232748557
134. 1722232748709
135. 1722232748857
136. 1722232749005
137. 1722232749157
138. 1722232749309
139. 1722232749461
140. 1722232749613
141. 1722232749761
142. 1722232749909
143. 1722232750061
144. 1722232750209
145. 1722232750361
146. 1722232750509
147. 1722232750665
148. 1722232750813
149. 1722232750965
150. 1722232751113
151. 1722232751261
152. 1722232751413
153. 1722232751565
154. 1722232751713
155. 1722232751869
156. 1722232752013
157. 1722232752165
158. 1722232752317
159. 1722232752469
160. 1722232752617
161. 1722232752765
162. 1722232752917
163. 1722232753065
164. 1722232753217
165. 1722232753369
166. 1722232753517
167. 1722232753669
168. 1722232753817
169. 1722232753973
170. 1722232754121
171. 1722232754269
172. 1722232754421
173. 1722232754569
174. 1722232754721
175. 1722232754869
176. 1722232755021
177. 1722232755169
178. 1722232755325
179. 1722232755477
180. 1722232755621
181. 1722232755773
182. 1722232755925
183. 1722232756073
184. 1722232756225
185. 1722232756377
186. 1722232756525
187. 1722232756677
188. 1722232756825
189. 1722232756973
190. 1722232757125
191. 1722232757273
192. 1722232757425
193. 1722232757577
194. 1722232757725
195. 1722232757881
196. 1722232758025
197. 1722232758177
198. 1722232758329
199. 1722232758477
200. 1722232758629
201. 1722232758777
202. 1722232758929
203. 1722232759077
204. 1722232759229
205. 1722232759377
206. 1722232759529
207. 1722232759681
208. 1722232759829
209. 1722232759981
210. 1722232760133
211. 1722232760281
212. 1722232760433
213. 1722232760581
