INITIAL
* 1:56pm Jul 29, 2024
* a0 vs a1
* 1 2 2 2 2 2 5 1 2 2 2 2 2 5
* X X X X
* X X X X
* X X X X
* X X X X
* X X X X
* X X X X
* X X X X
* X X X X
* first 0
* time 900
* 1. a8(P) a5(P)
* 2. c3(p) a6(p)
* 3. a4(N) a7(K)
* 4. d7(c) b8(R)
* 5. d1(m) c1(C)
* 6. b4(r) c5(C)
* 7. c6(r) c2(g)
* 8. b7(g) b6(p)
* 9. c1-c3 c7(c)
* 10. a2(G) c4(p)
* 11. d2(M) a3(N)
* 12. c5-c7 d4(k)
* 13. b3(G) d3(m)
* 14. b2(R) d5(p)
* 15. d8(n) c2-c1
* 16. a5-a6 c6-c5
* 17. b2-c2 b7-b8
* 18. b1(P) b4-a4
* 19. b1-b2 d6(M)
* 20. c7-b7 a4-a5
* 21. d2-d1 c1-b1
* 22. c3-c5 c4-b4
* 23. c2-d2 a1(n)
* 24. b3-c3 b6-a6
* 25. b2-c2 b5(P)
* 26. b7-b4 a6-b6
* 27. c3-c4 b6-b5
* 28. c4-c3 d3-d2
* 29. d1-c1 d4-d3
* 30. d6-d7 d3-d4
* 31. d7-d6 d2-d1
* 32. d6-d7 b1-b2
* 33. a7-a6 d5-d6
* 34. c8(P) b5-b6
* 35. a6-a5 b6-a6
* 36. c5-b5 d4-d3
* 37. b4-a4 d3-d2
* 38. c8-c7 d6-c6
* 39. c2-d2 c6-b6
* 40. c1-c2 d8-c8
* 41. d2-d3 b6-c6
* 42. c7-c6 c8-c7
* 43. c3-c4 b8-a8
* 44. d7-d6 c7-b7
* 45. b5-b6 b2-c2
* 46. d3-c3 d1-c1
* 47. d6-d7 a8-a7
* 48. a3-b3 b7-b6
* 49. a2-a1 c2-d2
* 50. c3-c2 b6-c6
* 51. d7-c7 c6-b6
* 52. b3-a3 c1-b1
* 53. a1-b1 b6-c6
* 54. b1-a1 a6-a5
* 55. a1-a2 a5-a6
* 56. c2-b2 a6-b6
* 57. a4-a5 d2-d1
* 58. c7-c6 d1-c1
* 59. c4-c5 b6-b5
* 60. a5-a6 a7-a8
* 61. a2-a1 b5-a5
* 62. b2-b1 c1-b1
* 63. c6-b6 b1-b2
* 64. c5-d5 a5-a4
* 65. a1-b1 b2-c2
* 66. b1-a1 a8-a7
* 67. d5-d6 a7-b7
* 68. d6-c6 a4-a5
* 69. a3-b3 a5-b5
* 70. b3-b4 c2-c3
* 71. a1-a2 b7-a7
* 72. a2-a1 c3-c2
* 73. b4-b3 a7-a6
* 74. b3-c3 b5-a5
* 75. c3-b3 a6-a7
* 76. b3-b4 a5-a6
* 77. b4-a4 a6-a5
* 78. a4-a5 c2-b2
* 79. b6-b7 b2-a2
* 80. a5-a6 a2-a3
* 81. c6-b6 a3-a4
* 82. b6-c6 a4-a5
* 83. c6-b6 a7-a6
* 84. b6-a6 a5-b5
* 85. b7-a7 b5-c5
* 86. a1-a2 c5-d5
* 87. a2-a3 d5-d4
* 88. a3-a2 d4-d5
* 89. a2-b2 d5-c5
* 90. b2-b1 c5-c4
* 91. b1-b2 c4-c5
* 92. b2-a2 c5-c4
* 93. a7-a8 c4-b4
* 94. a2-a3 b4-a4
* 95. a6-a7 a4-a3
* 96. a7-a6 a3-a2
* 97. a6-b6 a2-a1
* 98. a8-b8 a1-a2
* 99. b8-a8 a2-a3
* 100. b6-b5 a3-b3
* 101. b5-b6 b3-c3
* 102. b6-c6 c3-b3
* 103. c6-b6 b3-b4
* 104. b6-c6 b4-a4
* 105. c6-c5 a4-a3
* 106. c5-c6 a3-b3
* 107. c6-c5 b3-a3
* 108. c5-b5 a3-a2
* 109. b5-b6 a2-a1
* 110. a8-b8 a1-a2
* 111. b8-b7 a2-a1
* 112. b6-b5 a1-a2
* 113. b7-b8 a2-a1
* 114. b5-c5 a1-a2
* 115. c5-c4 a2-a3
* 116. c4-c3 a3-a4
* 117. b8-a8 a4-a5
* 118. c3-c2 a5-a4
* 119. c2-d2 a4-a5
* 120. d2-d1 a5-a4
* 121. a8-b8 a4-a3
* 122. d1-d2 a3-b3
* 123. d2-c2 b3-c3
* 124. c2-c3
* NoMove a0 Wins 1.000000,0.000000
* Comment 0 0
0. 1722232582143
1. 1722232582143
2. 1722232582329
3. 1722232582485
4. 1722232582633
5. 1722232582793
6. 1722232582981
7. 1722232583137
8. 1722232583285
9. 1722232583441
10. 1722232583585
11. 1722232583741
12. 1722232583889
13. 1722232584045
14. 1722232584237
15. 1722232584393
16. 1722232584537
17. 1722232584693
18. 1722232584837
19. 1722232584993
20. 1722232585137
21. 1722232585293
22. 1722232585441
23. 1722232585597
24. 1722232585741
25. 1722232585897
26. 1722232586041
27. 1722232586197
28. 1722232586341
29. 1722232586497
30. 1722232586641
31. 1722232586797
32. 1722232586945
33. 1722232587097
34. 1722232587241
35. 1722232587397
36. 1722232587549
37. 1722232587701
38. 1722232587845
39. 1722232588001
40. 1722232588145
41. 1722232588301
42. 1722232588445
43. 1722232588601
44. 1722232588749
45. 1722232588901
46. 1722232589049
47. 1722232589201
48. 1722232589353
49. 1722232589505
50. 1722232589649
51. 1722232589805
52. 1722232589949
53. 1722232590109
54. 1722232590301
55. 1722232590457
56. 1722232590605
57. 1722232590757
58. 1722232590901
59. 1722232591061
60. 1722232591257
61. 1722232591409
62. 1722232591557
63. 1722232591709
64. 1722232591857
65. 1722232592009
66. 1722232592153
67. 1722232592309
68. 1722232592453
69. 1722232592613
70. 1722232592805
71. 1722232592961
72. 1722232593105
73. 1722232593261
74. 1722232593405
75. 1722232593561
76. 1722232593705
77. 1722232593861
78. 1722232594005
79. 1722232594161
80. 1722232594309
81. 1722232594465
82. 1722232594613
83. 1722232594765
84. 1722232594909
85. 1722232595069
86. 1722232595261
87. 1722232595413
88. 1722232595561
89. 1722232595713
90. 1722232595865
91. 1722232596017
92. 1722232596161
93. 1722232596321
94. 1722232596517
95. 1722232596665
96. 1722232596813
97. 1722232596965
98. 1722232597113
99. 1722232597269
100. 1722232597413
101. 1722232597569
102. 1722232597713
103. 1722232597869
104. 1722232598013
105. 1722232598169
106. 1722232598313
107. 1722232598469
108. 1722232598617
109. 1722232598777
110. 1722232598965
111. 1722232599125
112. 1722232599317
113. 1722232599473
114. 1722232599617
115. 1722232599773
116. 1722232599921
117. 1722232600073
118. 1722232600217
119. 1722232600373
120. 1722232600521
121. 1722232600677
122. 1722232600873
123. 1722232601025
124. 1722232601169
125. 1722232601333
126. 1722232601521
127. 1722232601677
128. 1722232601821
129. 1722232601985
130. 1722232602177
131. 1722232602329
132. 1722232602473
133. 1722232602633
134. 1722232602825
135. 1722232602981
136. 1722232603129
137. 1722232603285
138. 1722232603481
139. 1722232603633
140. 1722232603777
141. 1722232603937
142. 1722232604129
143. 1722232604285
144. 1722232604429
145. 1722232604585
146. 1722232604733
147. 1722232604885
148. 1722232605029
149. 1722232605193
150. 1722232605381
151. 1722232605541
152. 1722232605733
153. 1722232605889
154. 1722232606033
155. 1722232606189
156. 1722232606333
157. 1722232606489
158. 1722232606633
159. 1722232606793
160. 1722232606989
161. 1722232607141
162. 1722232607289
163. 1722232607445
164. 1722232607637
165. 1722232607797
166. 1722232607989
167. 1722232608145
168. 1722232608289
169. 1722232608449
170. 1722232608641
171. 1722232608797
172. 1722232608989
173. 1722232609145
174. 1722232609289
175. 1722232609449
176. 1722232609641
177. 1722232609797
178. 1722232609945
179. 1722232610101
180. 1722232610293
181. 1722232610449
182. 1722232610593
183. 1722232610749
184. 1722232610893
185. 1722232611049
186. 1722232611201
187. 1722232611353
188. 1722232611545
189. 1722232611701
190. 1722232611845
191. 1722232612009
192. 1722232612197
193. 1722232612353
194. 1722232612497
195. 1722232612657
196. 1722232612849
197. 1722232613005
198. 1722232613149
199. 1722232613305
200. 1722232613453
201. 1722232613613
202. 1722232613801
203. 1722232613957
204. 1722232614101
205. 1722232614261
206. 1722232614453
207. 1722232614609
208. 1722232614753
209. 1722232614909
210. 1722232615053
211. 1722232615213
212. 1722232615405
213. 1722232615565
214. 1722232615753
215. 1722232615909
216. 1722232616061
217. 1722232616213
218. 1722232616409
219. 1722232616565
220. 1722232616761
221. 1722232616913
222. 1722232617057
223. 1722232617213
224. 1722232617357
225. 1722232617513
226. 1722232617657
227. 1722232617813
228. 1722232617957
229. 1722232618117
230. 1722232618313
231. 1722232618465
232. 1722232618609
233. 1722232618769
234. 1722232618961
235. 1722232619117
236. 1722232619261
237. 1722232619417
238. 1722232619561
239. 1722232619721
240. 1722232619913
241. 1722232620073
242. 1722232620265
243. 1722232620421
244. 1722232620565
245. 1722232620725
246. 1722232620913
247. 1722232621073
