INITIAL
* 1:5pm Jul 30, 2024
* a0 vs a1
* 1 2 2 2 2 2 5 1 2 2 2 2 2 5
* X X X X
* X X X X
* X X X X
* X X X X
* X X X X
* X X X X
* X X X X
* X X X X
* first 0
* time 900
* 1. a8(P) c5(r)
* 2. c2(P) c6(C)
* 3. b3(R) c3(r)
* 4. d7(M) d4(G)
* 5. c8(K) a4(P)
* 6. a1(g) d3(k)
* 7. b6(P) a7(p)
* 8. c1(m) c3-b3
* 9. a5(R) d3-d4
* 10. a3(c) d5(p)
* 11. c4(c) d6(C)
* 12. c7(N) d4-d3
* 13. b4(p) c4-c3
* 14. d2(p) c5-c6
* 15. d8(G) d2-c2
* 16. b1(n) b5(p)
* 17. d1(M) c3-c4
* 18. b6-b5 b3-c3
* 19. d1-c1 c6-d6
* 20. a4-b4 a3-b3
* 21. c1-c2 b2(N)
* 22. b5-c5 d5-c5
* 23. b4-a4 d3-d2
* 24. b8(P) a2(g)
* 25. a5-b5 a6(n)
* 26. b2-b1 a2-b2
* 27. c7-c6 b3-a3
* 28. b5-a5 d2-d1
* 29. c2-d2 c3-d3
* 30. b7(m) a6-b6
* 31. d2-c2 c4-c3
* 32. a4-b4 d3-d4
* 33. a5-a6 d4-d5
* 34. c6-b6 c5-c6
* 35. c8-c7 c3-d3
* 36. b1-c1 b2-a2
* 37. a6-a5 d5-d4
* 38. c7-b7 d1-d2
* 39. b7-c7 c6-c5
* 40. b6-c6 c5-b5
* 41. b8-b7 d2-d1
* 42. c7-c8 a7-a8
* 43. c6-b6 d1-d2
* 44. c1-d1 b5-b4
* 45. a5-a4 d4-c4
* 46. b7-a7 d6-d5
* 47. c8-c7 b4-b5
* 48. b6-b5 d3-d4
* 49. d1-c1 d4-d3
* 50. c7-b7 d3-d4
* 51. d7-c7 a2-b2
* 52. b5-c5 a1-a2
* 53. c2-c3 b2-b1
* 54. a4-a5 b1-a1
* 55. c1-c2 a3-a4
* 56. c7-d7 d4-d3
* 57. c5-c6 c4-c5
* 58. a7-a6 a4-b4
* 59. a6-b6 d2-c2
* 60. a5-b5 d3-d4
* 61. b5-a5 c2-c3
* 62. a5-a4 b4-b3
* 63. d7-c7 b3-b2
* 64. b6-a6 c5-c6
* 65. c7-d7 c6-c7
* 66. a6-b6 b2-b1
* 67. d7-d6 a8-a7
* 68. d8-c8 a7-a8
* 69. d6-d7 d5-d6
* 70. a4-a3 c3-b3
* 71. d7-d6 a8-b8
* 72. b6-b5 a2-a3
* 73. b5-a5 b3-b2
* 74. d6-c6 a3-b3
* 75. b7-a7 b2-c2
* 76. a7-a6 c2-c1
* 77. a5-a4 b3-b2
* 78. c8-b8 d4-d5
* 79. b8-c8 a1-a2
* 80. a4-b4 c1-c2
* 81. c6-b6 b2-b3
* 82. a6-a5 c2-d2
* 83. c8-c7 d2-d3
* 84. a5-a6 b1-c1
* 85. c7-b7 d3-d2
* 86. b4-c4 a2-a3
* 87. b6-c6 a3-a4
* 88. c6-b6 d5-c5
* 89. b7-a7 d2-d3
* 90. a7-a8 c1-b1
* 91. a8-b8 b1-b2
* 92. c4-b4 a4-b4
* 93. b6-b5 c5-d5
* 94. a6-a7 d3-d4
* 95. a7-b7 b4-b5
* 96. b7-b6 d4-c4
* 97. b8-a8 c4-c3
* 98. a8-b8 b2-b1
* 99. b8-a8 d5-c5
* 100. b6-b5 c3-c4
* 101. b5-b6 c5-b5
* 102. b6-c6 b5-b4
* 103. c6-b6 c4-d4
* 104. b6-c6 d4-c4
* 105. c6-c5 b1-a1
* 106. c5-c6 c4-c3
* 107. c6-c5 c3-d3
* 108. c5-b5 d3-d2
* 109. b5-b6 b4-b5
* 110. a8-b8 b5-b8
* 111. b6-a6 b3-c3
* 112. a6-a5 b8-a8
* 113. a5-b5 c3-b3
* 114. b5-a5 a8-b8
* 115. a5-a4 b3-b2
* 116. a4-b4 d2-c2
* 117. b4-b5 a1-b1
* 118. b5-b6 c2-c1
* 119. b6-a6 b2-c2
* 120. a6-a5 b8-c8
* 121. a5-b5 b1-a1
* 122. b5-b6 c1-d1
* 123. b6-b5 c2-c1
* 124. b5-b6 c1-c2
* 125. b6-b7 a1-a2
* 126. b7-b6 c2-b2
* 127. b6-b7 c8-d8
* 128. b7-b6 d8-d7
* 129. b6-b7 b2-b1
* 130. b7-b6 b1-b2
* 131. b6-b5 d7-c7
* 132. b5-a5 a2-a1
* 133. a5-a4 d1-d2
* 134. a4-a5 a1-b1
* 135. a5-a6 c7-d7
* 136. a6-a5 b1-a1
* 137. a5-b5 d7-d6
* 138. b5-b4 d6-d5
* 139. b4-b3 b2-a2
* 140. b3-a3 d5-d6
* NoEatFlipDraw a0 Draw 0.500000,0.500000
* Comment 0 0
0. 1722315944145
1. 1722315944145
2. 1722315944333
3. 1722315944489
4. 1722315944633
5. 1722315944789
6. 1722315944933
7. 1722315945089
8. 1722315945237
9. 1722315945389
10. 1722315945533
11. 1722315945693
12. 1722315945885
13. 1722315946041
14. 1722315946189
15. 1722315946345
16. 1722315946541
17. 1722315946693
18. 1722315946841
19. 1722315946993
20. 1722315947141
21. 1722315947293
22. 1722315947441
23. 1722315947597
24. 1722315947789
25. 1722315947949
26. 1722315948141
27. 1722315948297
28. 1722315948441
29. 1722315948597
30. 1722315948741
31. 1722315948897
32. 1722315949045
33. 1722315949197
34. 1722315949341
35. 1722315949501
36. 1722315949693
37. 1722315949853
38. 1722315950049
39. 1722315950197
40. 1722315950345
41. 1722315950501
42. 1722315950649
43. 1722315950805
44. 1722315950997
45. 1722315951149
46. 1722315951297
47. 1722315951457
48. 1722315951649
49. 1722315951801
50. 1722315951945
51. 1722315952101
52. 1722315952249
53. 1722315952405
54. 1722315952549
55. 1722315952709
56. 1722315952897
57. 1722315953057
58. 1722315953249
59. 1722315953405
60. 1722315953549
61. 1722315953709
62. 1722315953901
63. 1722315954057
64. 1722315954205
65. 1722315954357
66. 1722315954501
67. 1722315954661
68. 1722315954857
69. 1722315955009
70. 1722315955157
71. 1722315955313
72. 1722315955505
73. 1722315955661
74. 1722315955805
75. 1722315955961
76. 1722315956105
77. 1722315956265
78. 1722315956461
79. 1722315956609
80. 1722315956757
81. 1722315956913
82. 1722315957057
83. 1722315957217
84. 1722315957413
85. 1722315957561
86. 1722315957709
87. 1722315957865
88. 1722315958009
89. 1722315958165
90. 1722315958313
91. 1722315958465
92. 1722315958613
93. 1722315958769
94. 1722315958965
95. 1722315959117
96. 1722315959265
97. 1722315959421
98. 1722315959617
99. 1722315959769
100. 1722315959917
101. 1722315960069
102. 1722315960217
103. 1722315960369
104. 1722315960517
105. 1722315960669
106. 1722315960817
107. 1722315960973
108. 1722315961117
109. 1722315961269
110. 1722315961421
111. 1722315961569
112. 1722315961717
113. 1722315961869
114. 1722315962021
115. 1722315962177
116. 1722315962369
117. 1722315962525
118. 1722315962673
119. 1722315962821
120. 1722315962973
121. 1722315963125
122. 1722315963273
123. 1722315963429
124. 1722315963573
125. 1722315963725
126. 1722315963877
127. 1722315964029
128. 1722315964173
129. 1722315964325
130. 1722315964473
131. 1722315964625
132. 1722315964781
133. 1722315964925
134. 1722315965081
135. 1722315965225
136. 1722315965377
137. 1722315965529
138. 1722315965677
139. 1722315965829
140. 1722315965977
141. 1722315966133
142. 1722315966281
143. 1722315966429
144. 1722315966581
145. 1722315966733
146. 1722315966885
147. 1722315967029
148. 1722315967185
149. 1722315967329
150. 1722315967481
151. 1722315967637
152. 1722315967785
153. 1722315967933
154. 1722315968085
155. 1722315968237
156. 1722315968389
157. 1722315968533
158. 1722315968685
159. 1722315968833
160. 1722315968985
161. 1722315969133
162. 1722315969285
163. 1722315969437
164. 1722315969589
165. 1722315969737
166. 1722315969893
167. 1722315970037
168. 1722315970193
169. 1722315970341
170. 1722315970489
171. 1722315970641
172. 1722315970789
173. 1722315970937
174. 1722315971089
175. 1722315971237
176. 1722315971389
177. 1722315971545
178. 1722315971693
179. 1722315971841
180. 1722315971993
181. 1722315972141
182. 1722315972297
183. 1722315972441
184. 1722315972597
185. 1722315972745
186. 1722315972893
187. 1722315973041
188. 1722315973193
189. 1722315973341
190. 1722315973497
191. 1722315973645
192. 1722315973793
193. 1722315973945
194. 1722315974097
195. 1722315974245
196. 1722315974401
197. 1722315974549
198. 1722315974701
199. 1722315974849
200. 1722315975001
201. 1722315975145
202. 1722315975301
203. 1722315975449
204. 1722315975601
205. 1722315975753
206. 1722315975905
207. 1722315976053
208. 1722315976201
209. 1722315976349
210. 1722315976505
211. 1722315976653
212. 1722315976809
213. 1722315977001
214. 1722315977153
215. 1722315977301
216. 1722315977457
217. 1722315977605
218. 1722315977757
219. 1722315977901
220. 1722315978057
221. 1722315978205
222. 1722315978361
223. 1722315978553
224. 1722315978705
225. 1722315978853
226. 1722315979009
227. 1722315979153
228. 1722315979309
229. 1722315979453
230. 1722315979609
231. 1722315979757
232. 1722315979913
233. 1722315980061
234. 1722315980209
235. 1722315980357
236. 1722315980509
237. 1722315980657
238. 1722315980813
239. 1722315980961
240. 1722315981113
241. 1722315981257
242. 1722315981417
243. 1722315981609
244. 1722315981765
245. 1722315981909
246. 1722315982065
247. 1722315982209
248. 1722315982369
249. 1722315982561
250. 1722315982713
251. 1722315982861
252. 1722315983017
253. 1722315983161
254. 1722315983317
255. 1722315983465
256. 1722315983617
257. 1722315983765
258. 1722315983917
259. 1722315984065
260. 1722315984217
261. 1722315984365
262. 1722315984517
263. 1722315984665
264. 1722315984817
265. 1722315984965
266. 1722315985117
267. 1722315985265
268. 1722315985421
269. 1722315985569
270. 1722315985721
271. 1722315985869
272. 1722315986021
273. 1722315986173
274. 1722315986325
275. 1722315986473
276. 1722315986621
277. 1722315986769
278. 1722315986921
279. 1722315987069
280. 1722315987221
