INITIAL
* 1:15pm Jul 30, 2024
* a1 vs a0
* 1 2 2 2 2 2 5 1 2 2 2 2 2 5
* X X X X
* X X X X
* X X X X
* X X X X
* X X X X
* X X X X
* X X X X
* X X X X
* first 0
* time 900
* 1. a4(C) b4(g)
* 2. d8(G) c2(n)
* 3. c6(c) b3(C)
* 4. b7(p) d6(P)
* 5. a7(P) a2(k)
* 6. a5(K) b4-b3
* 7. b6(m) a1(N)
* 8. d2(p) b8(P)
* 9. c5(p) b7-b8
* 10. d7(r) a3(P)
* 11. b5(p) a8(c)
* 12. c8(m) b8-b7
* 13. a3-a2 d7-d6
* 14. a4-b4 d6-d7
* 15. d8-d7 b2(G)
* 16. d3(P) b5-a5
* 17. c3(R) c6-d6
* 18. d3-d2 a5-a4
* 19. c1(n) b1(M)
* 20. d5(r) a4-a5
* 21. b4-b5 c2-d2
* 22. a2-a3 b6-b5
* 23. b2-b3 c1-c2
* 24. b1-c1 d2-d3
* 25. d7-d6 c2-b2
* 26. c1-b1 b7-b8
* 27. a3-a4 d3-d2
* 28. b1-b2 b5-b4
* 29. a1-b1 c5-b5
* 30. d4(M) b5-c5
* 31. b2-c2 c7(p)
* 32. b1-a1 c8-d8
* 33. c2-d2 c7-b7
* 34. a7-b7 d8-c8
* 35. b7-c7 b4-b5
* 36. c3-d3 c8-c7
* 37. d2-c2 a6(N)
* 38. b3-b2 b8-b7
* 39. a4-a5 a8-b8
* 40. c2-c1 c7-c6
* 41. d1(g) b5-b6
* 42. b2-b1 d1-d2
* 43. a5-a4 d2-c2
* 44. a6-a5 b6-b5
* 45. d6-c6 b8-a8
* 46. c6-c5 b7-b6
* 47. a4-a3 b6-b7
* 48. a5-a4 b5-b6
* 49. a4-a5 b6-b5
* 50. c1-d1 a8-a7
* 51. a5-a6 b5-b6
* 52. c5-d5 c2-c1
* 53. d1-d2 b6-a6
* 54. d2-c2 a7-a3
* 55. c2-d2 b7-c7
* 56. d5-d6 c4(R)
* 57. d4-d5 c7-d7
* 58. b1-c1 a3-a2
* 59. d2-d1 a2-b2
* 60. c1-b1 a6-b6
* 61. a1-a2 b2-c2
* 62. a2-b2 b6-a6
* 63. c4-d4 c2-d2
* 64. d3-c3 d7-d8
* 65. d5-c5 a6-a7
* 66. d1-d2 a7-a8
* 67. d2-c2 d8-c8
* 68. d6-d5 c8-c7
* 69. c5-c4 a8-a7
* 70. b2-a2 a7-a8
* 71. c4-b4 a8-b8
* 72. d4-d3 c7-b7
* 73. d5-d6 b7-b6
* 74. c3-c4 b6-b5
* 75. c4-d4 b5-c5
* 76. c2-d2 b8-b7
* 77. a2-a3 b7-c7
* 78. b1-a1 c7-b7
* 79. b4-a4 b7-b6
* 80. d6-d7 c5-d5
* 81. d2-c2 b6-b7
* 82. d3-d2 b7-a7
* 83. a4-b4 a7-b7
* 84. c2-c1 b7-c7
* 85. c1-b1 d5-c5
* 86. b4-b3 c7-b7
* 87. d7-d8 b7-b6
* 88. d8-d7 b6-b5
* 89. d2-c2 b5-b4
* 90. c2-b2 c5-c4
* 91. a3-a2 b4-b3
* 92. d7-d8 c4-b4
* 93. d4-d5 b3-b2
* 94. d8-c8 b2-a2
* 95. c8-b8 a2-b2
* 96. b8-b7 b4-a4
* 97. b7-c7 b2-b3
* 98. c7-d7 b3-b2
* 99. b1-b2 a4-a5
* 100. d5-d4 a5-a4
* 101. a1-b1 a4-a5
* 102. d7-d6 a5-b5
* 103. b1-a1 b5-c5
* 104. d6-c6 c5-d5
* 105. d4-c4 d5-d4
* 106. c4-c5 d4-c4
* 107. c6-d6 c4-c3
* 108. b2-a2 c3-d3
* 109. a1-b1 d3-c3
* 110. d6-c6 c3-b3
* 111. b1-c1 b3-a3
* 112. a2-b2 a3-a2
* 113. b2-b3 a2-b2
* 114. b3-c3 b2-a2
* 115. c1-d1 a2-a1
* 116. c5-b5 a1-b1
* 117. c3-b3 b1-a1
* 118. b3-a3 a1-b1
* 119. c6-d6 b1-b2
* 120. b5-b6 b2-b1
* 121. a3-a2 b1-b2
* 122. d1-d2 b2-b3
* 123. b6-a6 b3-b2
* 124. d6-d7 b2-c2
* 125. d7-c7 c2-b2
* 126. d2-d1 b2-b1
* 127. a2-b2 b1-c1
* 128. d1-c1
* NoMove a1 Wins 1.000000,0.000000
* Comment 0 0
0. 1722316515926
1. 1722316515926
2. 1722316516117
3. 1722316516269
4. 1722316516413
5. 1722316516569
6. 1722316516717
7. 1722316516869
8. 1722316517017
9. 1722316517173
10. 1722316517317
11. 1722316517473
12. 1722316517617
13. 1722316517773
14. 1722316517921
15. 1722316518073
16. 1722316518221
17. 1722316518373
18. 1722316518525
19. 1722316518677
20. 1722316518821
21. 1722316518977
22. 1722316519125
23. 1722316519277
24. 1722316519425
25. 1722316519577
26. 1722316519729
27. 1722316519877
28. 1722316520025
29. 1722316520181
30. 1722316520329
31. 1722316520481
32. 1722316520633
33. 1722316520781
34. 1722316520933
35. 1722316521085
36. 1722316521229
37. 1722316521381
38. 1722316521529
39. 1722316521681
40. 1722316521829
41. 1722316521985
42. 1722316522129
43. 1722316522289
44. 1722316522485
45. 1722316522637
46. 1722316522781
47. 1722316522933
48. 1722316523081
49. 1722316523237
50. 1722316523385
51. 1722316523537
52. 1722316523685
53. 1722316523841
54. 1722316523985
55. 1722316524141
56. 1722316524285
57. 1722316524437
58. 1722316524585
59. 1722316524741
60. 1722316524885
61. 1722316525041
62. 1722316525189
63. 1722316525341
64. 1722316525493
65. 1722316525645
66. 1722316525793
67. 1722316525945
68. 1722316526093
69. 1722316526245
70. 1722316526389
71. 1722316526549
72. 1722316526745
73. 1722316526897
74. 1722316527041
75. 1722316527197
76. 1722316527341
77. 1722316527497
78. 1722316527641
79. 1722316527797
80. 1722316527945
81. 1722316528097
82. 1722316528245
83. 1722316528401
84. 1722316528549
85. 1722316528701
86. 1722316528845
87. 1722316529001
88. 1722316529145
89. 1722316529305
90. 1722316529501
91. 1722316529653
92. 1722316529801
93. 1722316529953
94. 1722316530101
95. 1722316530253
96. 1722316530401
97. 1722316530553
98. 1722316530701
99. 1722316530857
100. 1722316531001
101. 1722316531153
102. 1722316531301
103. 1722316531457
104. 1722316531605
105. 1722316531761
106. 1722316531957
107. 1722316532105
108. 1722316532253
109. 1722316532409
110. 1722316532557
111. 1722316532709
112. 1722316532857
113. 1722316533013
114. 1722316533205
115. 1722316533357
116. 1722316533505
117. 1722316533657
118. 1722316533805
119. 1722316533961
120. 1722316534105
121. 1722316534261
122. 1722316534409
123. 1722316534561
124. 1722316534709
125. 1722316534865
126. 1722316535013
127. 1722316535165
128. 1722316535309
129. 1722316535461
130. 1722316535613
131. 1722316535769
132. 1722316535961
133. 1722316536117
134. 1722316536261
135. 1722316536417
136. 1722316536561
137. 1722316536717
138. 1722316536861
139. 1722316537021
140. 1722316537213
141. 1722316537369
142. 1722316537517
143. 1722316537669
144. 1722316537813
145. 1722316537973
146. 1722316538165
147. 1722316538317
148. 1722316538465
149. 1722316538621
150. 1722316538765
151. 1722316538921
152. 1722316539069
153. 1722316539221
154. 1722316539369
155. 1722316539521
156. 1722316539673
157. 1722316539821
158. 1722316539969
159. 1722316540121
160. 1722316540269
161. 1722316540425
162. 1722316540573
163. 1722316540725
164. 1722316540869
165. 1722316541025
166. 1722316541173
167. 1722316541325
168. 1722316541477
169. 1722316541629
170. 1722316541777
171. 1722316541925
172. 1722316542073
173. 1722316542225
174. 1722316542373
175. 1722316542525
176. 1722316542673
177. 1722316542833
178. 1722316543025
179. 1722316543181
180. 1722316543325
181. 1722316543477
182. 1722316543625
183. 1722316543781
184. 1722316543929
185. 1722316544081
186. 1722316544233
187. 1722316544381
188. 1722316544533
189. 1722316544681
190. 1722316544833
191. 1722316544985
192. 1722316545129
193. 1722316545281
194. 1722316545433
195. 1722316545581
196. 1722316545737
197. 1722316545885
198. 1722316546037
199. 1722316546189
200. 1722316546333
201. 1722316546485
202. 1722316546637
203. 1722316546789
204. 1722316546933
205. 1722316547085
206. 1722316547237
207. 1722316547385
208. 1722316547533
209. 1722316547685
210. 1722316547837
211. 1722316547993
212. 1722316548137
213. 1722316548293
214. 1722316548441
215. 1722316548589
216. 1722316548741
217. 1722316548889
218. 1722316549041
219. 1722316549193
220. 1722316549337
221. 1722316549493
222. 1722316549645
223. 1722316549789
224. 1722316549941
225. 1722316550097
226. 1722316550241
227. 1722316550397
228. 1722316550541
229. 1722316550697
230. 1722316550845
231. 1722316550997
232. 1722316551141
233. 1722316551297
234. 1722316551445
235. 1722316551593
236. 1722316551745
237. 1722316551897
238. 1722316552045
239. 1722316552197
240. 1722316552345
241. 1722316552497
242. 1722316552645
243. 1722316552797
244. 1722316552945
245. 1722316553097
246. 1722316553249
247. 1722316553401
248. 1722316553553
249. 1722316553701
250. 1722316553849
251. 1722316554005
252. 1722316554149
253. 1722316554301
254. 1722316554453
255. 1722316554601
