INITIAL
* 1:7pm Jul 30, 2024
* a0 vs a1
* 1 2 2 2 2 2 5 1 2 2 2 2 2 5
* X X X X
* X X X X
* X X X X
* X X X X
* X X X X
* X X X X
* X X X X
* X X X X
* first 1
* time 900
* 1. a8(p) a3(P)
* 2. c3(P) a5(C)
* 3. b5(m) a1(c)
* 4. c8(c) d5(p)
* 5. a2(n) d2(p)
* 6. b6(g) a7(g)
* 7. c5(M) b7(R)
* 8. b8(k) d8(P)
* 9. b6-b7 c2(C)
* 10. b5-c5 c6(p)
* 11. a2-a3 d4(p)
* 12. c7(m) a5-d5
* 13. d1(R) b4(M)
* 14. c5-d5 c4(n)
* 15. c6-c5 b4-c4
* 16. a3-a2 d3(r)
* 17. c7-c6 c4-c5
* 18. d6(K) c3-c4
* 19. d5-c5 a6(N)
* 20. c5-b5 a4(P)
* 21. d7(G) c2-c3
* 22. b5-c5 d6-d5
* 23. c1(N) c3-c2
* 24. d3-c3 d7-c7
* 25. a2-a3 a6-b6
* 26. b1(P) d1-d2
* 27. a1-a2 b1-a1
* 28. c6-b6 c7-d7
* 29. a2-c2 d7-c7
* 30. a3-a2 c7-c6
* 31. a2-a3 a4-a5
* 32. d4-d5 d2-c2
* 33. b6-b5 a1-a2
* 34. a3-a4 c4-d4
* 35. b3(r) c2-d2
* 36. b3-a3 c6-b6
* 37. c5-c6 b6-b5
* 38. c8-c7 c1-c2
* 39. c3-c2 b5-b6
* 40. d5-d6 d2-d1
* 41. b2(G) d4-c4
* 42. c7-d7 c4-b4
* 43. b7-c7 b6-c6
* 44. b8-b7 a2-a1
* 45. d7-d1 a1-b1
* 46. a4-a5 b4-b3
* 47. d6-d5 c6-d6
* 48. a3-a2 d6-c6
* 49. a5-a6 b2-a2
* 50. d1-d8 b3-b4
* 51. a8-b8 c6-b6
* 52. c7-c6 a2-a3
* 53. c2-d2 b6-b5
* 54. b8-a8 b5-b6
* 55. a6-a5 b1-b2
* 56. d2-d3 b2-b3
* 57. a5-a4 a3-a2
* 58. c6-d6 b3-c3
* 59. d3-d2 b4-c4
* 60. b7-b8 c4-c5
* 61. a4-b4 c5-d5
* 62. d2-d1 a2-a3
* 63. d6-d5 c3-d3
* 64. b8-b7 a3-b3
* 65. a7-a6 b6-b5
* 66. a8-b8 b3-a3
* 67. b4-b3 d3-d2
* 68. b7-b6 b5-b4
* 69. d5-d6 a3-b3
* 70. a6-a5 b4-a4
* 71. a5-a6 b3-b4
* 72. b8-b7 b4-b3
* 73. d8-d2 b3-a3
* 74. b6-c6 a4-a5
* 75. d6-d5 a3-a2
* 76. a6-a7 a2-a3
* 77. d5-d4 a5-a4
* 78. d4-d3 a4-b4
* 79. c6-d6 a3-a4
* 80. b7-b8 b4-c4
* 81. a7-a6 c4-c5
* 82. d6-c6 a4-a3
* 83. d3-c3 c5-b5
* 84. c3-c4 b5-b6
* 85. a6-b6 a3-a2
* 86. b6-a6 a2-b2
* 87. b8-c8 b2-b3
* 88. a6-a5 b3-b2
* 89. c4-d4 b2-b3
* 90. d4-d3 b3-c3
* 91. d3-c3
* NoMove a0 Wins 1.000000,0.000000
* Comment 0 0
0. 1722316035865
1. 1722316035865
2. 1722316036053
3. 1722316036209
4. 1722316036353
5. 1722316036509
6. 1722316036661
7. 1722316036809
8. 1722316036961
9. 1722316037109
10. 1722316037257
11. 1722316037413
12. 1722316037557
13. 1722316037713
14. 1722316037857
15. 1722316038013
16. 1722316038161
17. 1722316038313
18. 1722316038461
19. 1722316038613
20. 1722316038761
21. 1722316038913
22. 1722316039061
23. 1722316039217
24. 1722316039361
25. 1722316039513
26. 1722316039661
27. 1722316039821
28. 1722316040017
29. 1722316040169
30. 1722316040313
31. 1722316040469
32. 1722316040613
33. 1722316040769
34. 1722316040913
35. 1722316041069
36. 1722316041213
37. 1722316041369
38. 1722316041513
39. 1722316041669
40. 1722316041821
41. 1722316041969
42. 1722316042117
43. 1722316042269
44. 1722316042417
45. 1722316042569
46. 1722316042717
47. 1722316042873
48. 1722316043021
49. 1722316043177
50. 1722316043369
51. 1722316043521
52. 1722316043669
53. 1722316043829
54. 1722316044021
55. 1722316044173
56. 1722316044321
57. 1722316044473
58. 1722316044625
59. 1722316044781
60. 1722316044973
61. 1722316045129
62. 1722316045273
63. 1722316045425
64. 1722316045573
65. 1722316045729
66. 1722316045877
67. 1722316046029
68. 1722316046173
69. 1722316046329
70. 1722316046477
71. 1722316046629
72. 1722316046777
73. 1722316046933
74. 1722316047081
75. 1722316047229
76. 1722316047377
77. 1722316047529
78. 1722316047681
79. 1722316047829
80. 1722316047977
81. 1722316048137
82. 1722316048329
83. 1722316048481
84. 1722316048629
85. 1722316048781
86. 1722316048929
87. 1722316049089
88. 1722316049281
89. 1722316049437
90. 1722316049581
91. 1722316049733
92. 1722316049881
93. 1722316050037
94. 1722316050185
95. 1722316050337
96. 1722316050481
97. 1722316050641
98. 1722316050833
99. 1722316050989
100. 1722316051137
101. 1722316051289
102. 1722316051433
103. 1722316051589
104. 1722316051741
105. 1722316051893
106. 1722316052089
107. 1722316052241
108. 1722316052389
109. 1722316052541
110. 1722316052685
111. 1722316052841
112. 1722316052993
113. 1722316053141
114. 1722316053289
115. 1722316053441
116. 1722316053589
117. 1722316053745
118. 1722316053889
119. 1722316054045
120. 1722316054189
121. 1722316054345
122. 1722316054493
123. 1722316054649
124. 1722316054841
125. 1722316054993
126. 1722316055145
127. 1722316055293
128. 1722316055445
129. 1722316055597
130. 1722316055745
131. 1722316055897
132. 1722316056045
133. 1722316056197
134. 1722316056349
135. 1722316056497
136. 1722316056645
137. 1722316056797
138. 1722316056945
139. 1722316057101
140. 1722316057245
141. 1722316057397
142. 1722316057549
143. 1722316057705
144. 1722316057897
145. 1722316058049
146. 1722316058201
147. 1722316058349
148. 1722316058497
149. 1722316058653
150. 1722316058801
151. 1722316058953
152. 1722316059105
153. 1722316059257
154. 1722316059405
155. 1722316059553
156. 1722316059705
157. 1722316059853
158. 1722316060001
159. 1722316060153
160. 1722316060301
161. 1722316060457
162. 1722316060601
163. 1722316060761
164. 1722316060953
165. 1722316061109
166. 1722316061257
167. 1722316061409
168. 1722316061553
169. 1722316061709
170. 1722316061853
171. 1722316062009
172. 1722316062161
173. 1722316062309
174. 1722316062457
175. 1722316062609
176. 1722316062757
177. 1722316062909
178. 1722316063061
179. 1722316063213
180. 1722316063357
181. 1722316063509
