INITIAL
* 1:16pm Jul 30, 2024
* a0 vs a1
* 1 2 2 2 2 2 5 1 2 2 2 2 2 5
* X X X X
* X X X X
* X X X X
* X X X X
* X X X X
* X X X X
* X X X X
* X X X X
* first 0
* time 900
* 1. a8(C) b4(p)
* 2. c3(p) a5(g)
* 3. b5(g) c1(P)
* 4. c8(k) a6(c)
* 5. a2(G) a4(N)
* 6. b7(C) c7(N)
* 7. b7-b5 c5(M)
* 8. a3(n) c8-c7
* 9. a4-a3 d4(R)
* 10. b6(P) d8(p)
* 11. a3-a4 c7-b7
* 12. b1(n) b8(M)
* 13. d7(p) d7-c7
* 14. d6(P) a7(P)
* 15. a4-a3 a5-a4
* 16. b2(c) d1(G)
* 17. c4(r) b3(P)
* 18. d5(p) a4-a3
* 19. b5-b7 c7-d7
* 20. a1(K) b1-c1
* 21. d1-c1 d8-c8
* 22. b7-b4 d7-c7
* 23. d4-d5 c7-b7
* 24. a8-c8 a3-a2
* 25. c2(r) b7-a7
* 26. c6(m) a7-b7
* 27. c1-d1 b7-b6
* 28. b8-a8 c3-b3
* 29. a1-b1 a2-a1
* 30. a8-a7 b6-b5
* 31. b4-b2 b3-a3
* 32. a7-a8 c4-c3
* 33. c8-d8 a6-a7
* 34. b1-a1 d2(m)
* 35. b2-a2 c3-b3
* 36. c5-c6 d3(R)
* 37. a2-a7 b5-a5
* 38. d8-c8 c2-c1
* 39. c8-d8 b3-b4
* 40. d8-c8 c1-b1
* 41. a1-a2 d2-d3
* 42. c8-b8 b1-a1
* 43. b8-b7 d3-d2
* 44. b7-b6 b4-c4
* 45. b6-b5 c4-c5
* 46. c6-c7 a3-a4
* 47. c7-b7 c5-c4
* 48. a2-a1 a4-b4
* 49. b5-c5 c4-c5
* 50. a7-a6 a5-b5
* 51. a6-a7 c5-c6
* 52. d5-d4 d2-d3
* 53. a1-a2 c6-c5
* 54. b7-b8 d3-c3
* 55. d4-d3 b5-b6
* 56. d3-d4 b6-b7
* 57. b8-c8 b4-a4
* 58. a2-a1 c5-d5
* 59. d1-d2 c3-d3
* 60. a8-b8 a4-a3
* 61. a1-a2 d3-c3
* 62. d4-d3 b7-c7
* 63. a7-a6 a3-a4
* 64. d3-d4 a4-a3
* 65. a6-a7 a3-b3
* 66. d6-d7 c3-d3
* 67. d7-d8 c7-b7
* 68. d4-c4 b7-c7
* 69. a2-a1 d3-d4
* 70. a7-a8 b3-b2
* 71. a1-a2 b2-a2
* 72. c8-c7 d5-d6
* 73. d2-d1 a2-a1
* 74. c4-b4 a1-a2
* 75. d8-d7 a2-b2
* 76. b8-c8 d4-d3
* 77. c8-d8 d3-d4
* 78. c7-c6 d6-d5
* 79. b4-b5 d5-c5
* 80. b5-b4 d4-c4
* 81. c6-d6 c4-b4
* 82. a8-b8 b4-c4
* 83. d6-d5 c4-d4
* 84. d7-d6 b2-b1
* 85. d1-c1 b1-a1
* 86. b8-a8 a1-a2
* 87. c1-b1 d4-c4
* 88. d8-d7 c5-b5
* 89. b1-c1 c4-c3
* 90. d7-d8 a2-a3
* 91. d5-d4 a3-b3
* 92. d4-d3 c3-c4
* 93. c1-d1 c4-c3
* 94. a8-b8 b3-b4
* 95. d3-d4 c3-c4
* 96. d4-d3 c4-d4
* 97. d1-c1 d4-d3
* 98. c1-d1 b5-a5
* 99. d1-d2 a5-b5
* 100. d8-d7 b4-a4
* 101. d2-d1 b5-a5
* 102. b8-c8 a4-b4
* 103. c8-c7 a5-b5
* 104. c7-c6 b4-c4
* 105. d1-c1 d3-c3
* 106. c1-c2 b5-b4
* 107. c6-c3 b4-a4
* 108. c2-c1 a4-a3
* 109. d6-d5 a3-a4
* 110. c1-b1 a4-b4
* 111. c3-d3 b4-b3
* 112. d5-d4 b3-a3
* 113. b1-b2 a3-a2
* 114. d4-d5 c4-c3
* 115. b2-c2 c3-c4
* 116. d3-d2 c4-d4
* 117. d7-c7 a2-a3
* 118. c7-d7 d4-c4
* 119. d7-c7 c4-c5
* 120. d5-d4 c5-c4
* 121. c7-c8 a3-a2
* 122. d4-c4 a2-a3
* 123. c4-b4 a3-a2
* 124. c2-b2 a2-a3
* 125. b2-b1 a3-a2
* 126. b1-b2 a2-a3
* 127. b2-b1 a3-b3
* 128. d2-d1 b3-b2
* 129. c8-c7 b2-a2
* 130. b4-b3 a2-a1
* 131. d1-a1
* NoMove a0 Wins 1.000000,0.000000
* Comment 0 0
0. 1722316562618
1. 1722316562618
2. 1722316562805
3. 1722316562961
4. 1722316563105
5. 1722316563265
6. 1722316563457
7. 1722316563613
8. 1722316563757
9. 1722316563917
10. 1722316564113
11. 1722316564265
12. 1722316564409
13. 1722316564565
14. 1722316564713
15. 1722316564865
16. 1722316565013
17. 1722316565165
18. 1722316565309
19. 1722316565465
20. 1722316565613
21. 1722316565769
22. 1722316565917
23. 1722316566073
24. 1722316566261
25. 1722316566417
26. 1722316566565
27. 1722316566721
28. 1722316566865
29. 1722316567025
30. 1722316567213
31. 1722316567369
32. 1722316567521
33. 1722316567669
34. 1722316567817
35. 1722316567977
36. 1722316568165
37. 1722316568325
38. 1722316568521
39. 1722316568677
40. 1722316568869
41. 1722316569025
42. 1722316569173
43. 1722316569325
44. 1722316569473
45. 1722316569625
46. 1722316569769
47. 1722316569925
48. 1722316570069
49. 1722316570229
50. 1722316570421
51. 1722316570581
52. 1722316570773
53. 1722316570929
54. 1722316571077
55. 1722316571233
56. 1722316571425
57. 1722316571577
58. 1722316571725
59. 1722316571881
60. 1722316572029
61. 1722316572181
62. 1722316572329
63. 1722316572481
64. 1722316572625
65. 1722316572781
66. 1722316572925
67. 1722316573081
68. 1722316573225
69. 1722316573381
70. 1722316573533
71. 1722316573685
72. 1722316573833
73. 1722316573989
74. 1722316574177
75. 1722316574337
76. 1722316574533
77. 1722316574689
78. 1722316574885
79. 1722316575037
80. 1722316575185
81. 1722316575337
82. 1722316575485
83. 1722316575637
84. 1722316575781
85. 1722316575937
86. 1722316576089
87. 1722316576237
88. 1722316576385
89. 1722316576541
90. 1722316576685
91. 1722316576841
92. 1722316576985
93. 1722316577145
94. 1722316577337
95. 1722316577497
96. 1722316577685
97. 1722316577845
98. 1722316578037
99. 1722316578193
100. 1722316578337
101. 1722316578497
102. 1722316578689
103. 1722316578845
104. 1722316578993
105. 1722316579149
106. 1722316579341
107. 1722316579493
108. 1722316579641
109. 1722316579797
110. 1722316579941
111. 1722316580097
112. 1722316580241
113. 1722316580401
114. 1722316580593
115. 1722316580749
116. 1722316580893
117. 1722316581049
118. 1722316581193
119. 1722316581353
120. 1722316581545
121. 1722316581705
122. 1722316581901
123. 1722316582053
124. 1722316582245
125. 1722316582405
126. 1722316582597
127. 1722316582753
128. 1722316582901
129. 1722316583057
130. 1722316583249
131. 1722316583405
132. 1722316583549
133. 1722316583705
134. 1722316583853
135. 1722316584005
136. 1722316584149
137. 1722316584309
138. 1722316584505
139. 1722316584657
140. 1722316584801
141. 1722316584957
142. 1722316585101
143. 1722316585261
144. 1722316585453
145. 1722316585609
146. 1722316585757
147. 1722316585909
148. 1722316586053
149. 1722316586209
150. 1722316586357
151. 1722316586509
152. 1722316586653
153. 1722316586809
154. 1722316586961
155. 1722316587109
156. 1722316587257
157. 1722316587409
158. 1722316587557
159. 1722316587717
160. 1722316587909
161. 1722316588065
162. 1722316588257
163. 1722316588413
164. 1722316588557
165. 1722316588717
166. 1722316588909
167. 1722316589065
168. 1722316589209
169. 1722316589365
170. 1722316589513
171. 1722316589665
172. 1722316589813
173. 1722316589965
174. 1722316590117
175. 1722316590265
176. 1722316590413
177. 1722316590573
178. 1722316590765
179. 1722316590917
180. 1722316591065
181. 1722316591221
182. 1722316591413
183. 1722316591573
184. 1722316591765
185. 1722316591925
186. 1722316592117
187. 1722316592269
188. 1722316592417
189. 1722316592569
190. 1722316592721
191. 1722316592877
192. 1722316593065
193. 1722316593221
194. 1722316593373
195. 1722316593521
196. 1722316593673
197. 1722316593829
198. 1722316594021
199. 1722316594173
200. 1722316594325
201. 1722316594477
202. 1722316594625
203. 1722316594781
204. 1722316594969
205. 1722316595125
206. 1722316595273
207. 1722316595425
208. 1722316595573
209. 1722316595729
210. 1722316595873
211. 1722316596029
212. 1722316596173
213. 1722316596333
214. 1722316596525
215. 1722316596685
216. 1722316596873
217. 1722316597033
218. 1722316597229
219. 1722316597381
220. 1722316597525
221. 1722316597681
222. 1722316597825
223. 1722316597981
224. 1722316598125
225. 1722316598281
226. 1722316598433
227. 1722316598581
228. 1722316598729
229. 1722316598885
230. 1722316599029
231. 1722316599185
232. 1722316599329
233. 1722316599485
234. 1722316599633
235. 1722316599789
236. 1722316599981
237. 1722316600141
238. 1722316600333
239. 1722316600485
240. 1722316600637
241. 1722316600793
242. 1722316600985
243. 1722316601137
244. 1722316601285
245. 1722316601441
246. 1722316601633
247. 1722316601789
248. 1722316601933
249. 1722316602089
250. 1722316602233
251. 1722316602389
252. 1722316602537
253. 1722316602689
254. 1722316602837
255. 1722316602993
256. 1722316603137
257. 1722316603297
258. 1722316603489
259. 1722316603641
260. 1722316603789
261. 1722316603945
