INITIAL
* 1:28pm Jul 30, 2024
* a1 vs a0
* 1 2 2 2 2 2 5 1 2 2 2 2 2 5
* X X X X
* X X X X
* X X X X
* X X X X
* X X X X
* X X X X
* X X X X
* X X X X
* first 1
* time 900
* 1. c4(r) b3(P)
* 2. a3(K) b4(P)
* 3. c4-b4 b5(p)
* 4. b8(p) c8(p)
* 5. a2(R) d2(k)
* 6. a6(R) d1(m)
* 7. d5(N) b2(m)
* 8. d8(P) c5(p)
* 9. b6(C) c1(G)
* 10. c2(p) a4(M)
* 11. d3(c) a4-b4
* 12. a8(n) b4-c4
* 13. a7(c) c3(n)
* 14. d6(N) c4-b4
* 15. d4(G) a3-a4
* 16. c3-c4 b3-c3
* 17. b2-a2 a6-a7
* 18. c7(P) b6-a6
* 19. c4-c3 c1-d1
* 20. b5-b6 c6(g)
* 21. a5(g) d8-c8
* 22. c6-d6 d4-c4
* 23. c2-b2 b4-b5
* 24. d6-d5 b5-b4
* 25. d7(P) b7(M)
* 26. c5-b5 c4-c3
* 27. b2-c2 b1(C)
* 28. b6-c6 c8-b8
* 29. a2-a3 c3-d3
* 30. c2-b2 a4-a5
* 31. b5-b6 a6-a3
* 32. d5-c5 d7-d8
* 33. b2-a2 d3-d4
* 34. a2-b2 a7-a6
* 35. c5-c4 a5-a4
* 36. c6-c7 b1-c1
* 37. c4-b4 d4-c4
* 38. b6-c6 a6-a5
* 39. c6-c5 c4-b4
* 40. b2-a2 b8-c8
* 41. a2-b2 c8-b8
* 42. c5-c6 b7-c7
* 43. c6-c5 b8-b7
* 44. d2-d3 a3-b3
* 45. c5-b5 b3-b5
* 46. d3-c3 a5-a6
* 47. a8-b8 d8-d7
* 48. b8-b7 a6-b6
* 49. b7-a7 d1-d2
* 50. b2-a2 c7-c6
* 51. c3-d3 c6-d6
* 52. d3-d4 b5-c5
* 53. a2-b2 d2-d1
* 54. d4-c4 b6-a6
* 55. c4-c5 a6-b6
* 56. a7-a6 b6-a6
* 57. c5-d5 a4-a3
* 58. d5-d4 d6-c6
* 59. a1(r) d1-d2
* 60. d4-d5 a6-a7
* 61. b2-b1 b4-b5
* 62. d5-d4 d2-c2
* 63. d4-d5 a7-b7
* 64. d5-d4 c1-d1
* 65. d4-d3 c2-b2
* 66. b1-c1 c6-d6
* 67. d3-c3 d7-c7
* 68. c1-b1 b5-b4
* 69. c3-c4 c7-c6
* 70. c4-c5 b7-a7
* 71. c5-d5 b4-c4
* 72. d5-d4 a7-a8
* 73. d4-d3 c4-b4
* 74. d3-d2 b2-a2
* 75. b1-c1 d6-d7
* 76. d2-d1 a2-b2
* 77. a1-b1 c6-c7
* 78. d1-d2 c7-c8
* 79. b1-a1 a3-a4
* 80. c1-c2 b2-a2
* 81. c2-c3 d7-d6
* 82. d2-d3 b4-c4
* 83. c3-c2 a8-b8
* 84. c2-d2 b8-b7
* 85. d2-d1 b7-c7
* 86. a1-b1 c7-c6
* 87. b1-b2 c8-c7
* 88. d1-d2 a2-a1
* 89. d3-c3 d6-d5
* 90. b2-a2 d5-c5
* 91. d2-c2 c7-c8
* 92. c2-c1 a1-a2
* 93. c1-d1 c6-d6
* 94. c3-c2 a2-a3
* 95. c2-c1 c8-d8
* 96. c1-b1 c5-b5
* 97. b1-c1 d6-c6
* 98. c1-c2 a3-b3
* 99. c2-d2 c6-c5
* 100. d1-c1 c5-d5
* 101. d2-c2 d5-c5
* 102. c2-b2 c4-d4
* 103. c1-b1 c5-c4
* 104. b1-a1 b5-b6
* 105. b2-b1 d8-d7
* 106. b1-b2 b3-a3
* 107. b2-c2 a3-a2
* 108. a1-b1 a2-a1
* 109. c2-b2 c4-c3
* 110. b1-c1 a1-a2
* 111. b2-a2 a4-b4
* 112. a2-a3 b4-c4
* 113. c1-d1 d7-c7
* 114. d1-c1 c3-d3
* 115. c1-d1 c4-c3
* 116. d1-c1 d4-d5
* 117. a3-b3 c7-d7
* 118. c1-b1 d7-d6
* 119. b1-c1 d3-d2
* 120. b3-a3 d6-d7
* 121. a3-a4 c3-c2
* 122. c1-d1 d5-c5
* 123. d1-c1 c5-b5
* 124. c1-b1 d7-c7
* 125. a4-b4 b6-b7
* 126. b1-c1 b5-b6
* 127. b4-c4 c7-c6
* 128. c4-d4 d2-d1
* 129. d4-d3 b7-a7
* 130. d3-d2 c2-b2
* 131. d2-c2 c6-c5
* SocketBroken a0 Wins 0.000000,1.000000
* Comment 0 0
0. 1722317316932
1. 1722317316932
2. 1722317317117
3. 1722317317381
4. 1722317317573
5. 1722317317829
6. 1722317318021
7. 1722317318277
8. 1722317318469
9. 1722317318733
10. 1722317318925
11. 1722317319181
12. 1722317319373
13. 1722317319633
14. 1722317319825
15. 1722317320085
16. 1722317320277
17. 1722317320533
18. 1722317320725
19. 1722317320985
20. 1722317321177
21. 1722317321437
22. 1722317321629
23. 1722317321881
24. 1722317322029
25. 1722317322289
26. 1722317322477
27. 1722317322733
28. 1722317322877
29. 1722317323133
30. 1722317323281
31. 1722317323537
32. 1722317323729
33. 1722317323989
34. 1722317324181
35. 1722317324441
36. 1722317324633
37. 1722317324893
38. 1722317325081
39. 1722317325341
40. 1722317325537
41. 1722317325797
42. 1722317325989
43. 1722317326241
44. 1722317326389
45. 1722317326649
46. 1722317326841
47. 1722317327093
48. 1722317327237
49. 1722317327501
50. 1722317327689
51. 1722317327945
52. 1722317328089
53. 1722317328349
54. 1722317328541
55. 1722317328801
56. 1722317328993
57. 1722317329249
58. 1722317329445
59. 1722317329701
60. 1722317329893
61. 1722317330157
62. 1722317330349
63. 1722317330601
64. 1722317330745
65. 1722317331005
66. 1722317331197
67. 1722317331457
68. 1722317331645
69. 1722317331905
70. 1722317332097
71. 1722317332361
72. 1722317332553
73. 1722317332809
74. 1722317333001
75. 1722317333257
76. 1722317333401
77. 1722317333657
78. 1722317333801
79. 1722317334061
80. 1722317334253
81. 1722317334509
82. 1722317334653
83. 1722317334913
84. 1722317335105
85. 1722317335361
86. 1722317335509
87. 1722317335761
88. 1722317335905
89. 1722317336165
90. 1722317336357
91. 1722317336613
92. 1722317336757
93. 1722317337017
94. 1722317337209
95. 1722317337465
96. 1722317337609
97. 1722317337869
98. 1722317338061
99. 1722317338317
100. 1722317338461
101. 1722317338717
102. 1722317338865
103. 1722317339121
104. 1722317339265
105. 1722317339525
106. 1722317339721
107. 1722317339973
108. 1722317340117
109. 1722317340377
110. 1722317340569
111. 1722317340825
112. 1722317341021
113. 1722317341273
114. 1722317341417
115. 1722317341677
116. 1722317341869
117. 1722317342125
118. 1722317342269
119. 1722317342525
120. 1722317342669
121. 1722317342925
122. 1722317343073
123. 1722317343329
124. 1722317343477
125. 1722317343729
126. 1722317343873
127. 1722317344129
128. 1722317344277
129. 1722317344529
130. 1722317344673
131. 1722317344929
132. 1722317345077
133. 1722317345337
134. 1722317345525
135. 1722317345785
136. 1722317345977
137. 1722317346233
138. 1722317346377
139. 1722317346633
140. 1722317346777
141. 1722317347033
142. 1722317347177
143. 1722317347433
144. 1722317347581
145. 1722317347837
146. 1722317348033
147. 1722317348289
148. 1722317348485
149. 1722317348737
150. 1722317348885
151. 1722317349137
152. 1722317349281
153. 1722317349537
154. 1722317349681
155. 1722317349941
156. 1722317350133
157. 1722317350389
158. 1722317350533
159. 1722317350789
160. 1722317350933
161. 1722317351193
162. 1722317351385
163. 1722317351641
164. 1722317351785
165. 1722317352045
166. 1722317352237
167. 1722317352493
168. 1722317352637
169. 1722317352897
170. 1722317353089
171. 1722317353345
172. 1722317353489
173. 1722317353749
174. 1722317353941
175. 1722317354197
176. 1722317354345
177. 1722317354597
178. 1722317354741
179. 1722317355001
180. 1722317355193
181. 1722317355449
182. 1722317355597
183. 1722317355853
184. 1722317356049
185. 1722317356305
186. 1722317356497
187. 1722317356753
188. 1722317356897
189. 1722317357153
190. 1722317357297
191. 1722317357557
192. 1722317357749
193. 1722317358005
194. 1722317358149
195. 1722317358405
196. 1722317358549
197. 1722317358805
198. 1722317358953
199. 1722317359209
200. 1722317359401
201. 1722317359661
202. 1722317359853
203. 1722317360109
204. 1722317360257
205. 1722317360509
206. 1722317360657
207. 1722317360913
208. 1722317361105
209. 1722317361361
210. 1722317361505
211. 1722317361765
212. 1722317361961
213. 1722317362217
214. 1722317362413
215. 1722317362669
216. 1722317362861
217. 1722317363117
218. 1722317363309
219. 1722317363565
220. 1722317363717
221. 1722317363969
222. 1722317364113
223. 1722317364373
224. 1722317364561
225. 1722317364821
226. 1722317365013
227. 1722317365273
228. 1722317365465
229. 1722317365725
230. 1722317365913
231. 1722317366173
232. 1722317366365
233. 1722317366625
234. 1722317366817
235. 1722317367073
236. 1722317367221
237. 1722317367473
238. 1722317367617
239. 1722317367881
240. 1722317368069
241. 1722317368325
242. 1722317368469
243. 1722317368729
244. 1722317368921
245. 1722317369177
246. 1722317369325
247. 1722317369581
248. 1722317369773
249. 1722317370029
250. 1722317370173
251. 1722317370433
252. 1722317370629
253. 1722317370881
254. 1722317371029
255. 1722317371281
256. 1722317371425
257. 1722317371685
258. 1722317371881
259. 1722317372133
260. 1722317372281
261. 1722317372537
262. 1722317372729
