INITIAL
* 10:54pm Dec 2, 2024
* az_new vs 3depth
* 1 2 2 2 2 2 5 1 2 2 2 2 2 5
* X X X X
* X X X X
* X X X X
* X X X X
* X X X X
* X X X X
* X X X X
* X X X X
* first 0
* time 900
* 1. d5(P) b5(g)
* 2. c5(P) b5-c5
* 3. c6(C) c5-c6
* 4. c7(p) d7(c)
* 5. c8(N) b7(P)
* 6. c8-c7 c6-c7
* 7. d6(P) d7-d5
* 8. a7(r) d3(m)
* 9. d1(p) d2(m)
* 10. c1(P) d1-c1
* 11. a1(k) c1-d1
* 12. d4(K) d5-c5
* 13. d4-d3 a2(p)
* 14. d3-d2 d1-d2
* 15. c2(R) d2-d1
* 16. b1(p) d1-d2
* 17. c2-d2 c5-d5
* 18. b2(C) c7-b7
* 19. a3(G) c3(p)
* 20. a3-a2 a1-a2
* 21. b6(n) a2-b2
* 22. b3(g) c3-d3
* 23. d2-d3 b3-c3
* 24. d8(N) c3-d3
* 25. a6(G) a4(R)
* 26. a6-b6 b7-b6
* 27. b4(c) b4-b5
* 28. a5(n) d5-d4
* 29. a4-a5 b5-c5
* 30. c4(M) c5-c6
* 31. c4-d4 d3-d4
* 32. a8(r) b6-b7
* 33. b8(M) b7-b8
* 34. d8-c8 b8-c8
* 35. d6-d5 d4-d5
* 36. a5-a6 a7-a6
* NoMove 3depth Wins 0.000000,1.000000
* Comment 0 0
0. 1733151261828
1. 1733151261828
2. 1733151263515
3. 1733151264372
4. 1733151265718
5. 1733151266426
6. 1733151267621
7. 1733151268530
8. 1733151269623
9. 1733151270283
10. 1733151271176
11. 1733151271987
12. 1733151272829
13. 1733151273590
14. 1733151274331
15. 1733151274793
16. 1733151275483
17. 1733151276194
18. 1733151276735
19. 1733151277446
20. 1733151277786
21. 1733151278598
22. 1733151278888
23. 1733151279449
24. 1733151279690
25. 1733151280201
26. 1733151280441
27. 1733151280952
28. 1733151281192
29. 1733151281754
30. 1733151281993
31. 1733151282706
32. 1733151282946
33. 1733151283558
34. 1733151283746
35. 1733151284159
36. 1733151284347
37. 1733151285160
38. 1733151285350
39. 1733151285712
40. 1733151285901
41. 1733151286263
42. 1733151286451
43. 1733151287114
44. 1733151287303
45. 1733151288065
46. 1733151288255
47. 1733151289067
48. 1733151289256
49. 1733151290018
50. 1733151290207
51. 1733151290820
52. 1733151291009
53. 1733151291722
54. 1733151291911
55. 1733151292623
56. 1733151292813
57. 1733151293524
58. 1733151293714
59. 1733151294376
60. 1733151294566
61. 1733151295277
62. 1733151295466
63. 1733151296178
64. 1733151296368
65. 1733151296779
66. 1733151296970
67. 1733151297680
68. 1733151297871
69. 1733151298532
70. 1733151298723
71. 1733151299383
72. 1733151299575
