INITIAL
* 6:10pm Feb 22, 2026
* a0_mu vs a1_stmu
* 1 2 2 2 2 2 5 1 2 2 2 2 2 5
* X X X X
* X X X X
* X X X X
* X X X X
* X X X X
* X X X X
* X X X X
* X X X X
* first 1
* time 900
* 1. b1(p) b6(C)
* 2. c7(c) c8(p)
* 3. a4(p) b8(P)
* 4. d8(P) a8(n)
* 5. c6(P) b8-c8
* 6. c2(M) c8-b8
* 7. d4(N) d8-c8
* 8. a3(C) c8-d8
* 9. c1(G) b8-c8
* 10. a2(r) c8-b8
* 11. a6(p) b8-c8
* 12. c3(g) c8-b8
* 13. a1(n) b8-c8
* 14. c5(c) c8-b8
* 15. a7(m) d8-c8
* 16. c4(G) c8-d8
* 17. c7-c8 b7(K)
* 18. c8-c7 b8-c8
* 19. b2(p) b7-b8
* 20. c3-c4 b8-a8
* 21. c4-c3 a8-a7
* 22. a5(r) a7-a8
* 23. d1(m) c8-b8
* 24. b3(M) b8-c8
* 25. c3-c4 a8-b8
* 26. a6-a7 b8-a8
* 27. c4-c3 c8-b8
* 28. c3-c4 b8-c8
* 29. c4-c3 a8-b8
* 30. c3-c4 b6-b7
* 31. c4-c3 d7(P)
* 32. c3-c4 b8-a8
* 33. c4-c3 a8-b8
* 34. c3-c4 b8-a8
* 35. c4-c3 c8-b8
* 36. c3-c4 d8-c8
* 37. c4-c3 d7-d8
* 38. c3-c4 d8-d7
* 39. c4-c3 d7-d8
* 40. c3-c4 d8-d7
* 41. c4-c3 d7-d8
* 42. c3-c4 d8-d7
* PositionRepetitionDraw,3,4 a0_mu Draw 0.500000,0.500000
* Comment 0 0
0. 1771755007073
1. 1771755007073
2. 1771755009112
3. 1771755010918
4. 1771755012771
5. 1771755014572
6. 1771755016431
7. 1771755018226
8. 1771755020087
9. 1771755021931
10. 1771755023793
11. 1771755025589
12. 1771755027450
13. 1771755029246
14. 1771755031106
15. 1771755032950
16. 1771755034863
17. 1771755036704
18. 1771755038569
19. 1771755040459
20. 1771755042375
21. 1771755044265
22. 1771755046184
23. 1771755048071
24. 1771755049989
25. 1771755051878
26. 1771755053745
27. 1771755055634
28. 1771755057551
29. 1771755059439
30. 1771755061356
31. 1771755063245
32. 1771755065162
33. 1771755067053
34. 1771755068968
35. 1771755070862
36. 1771755072775
37. 1771755074622
38. 1771755076530
39. 1771755078381
40. 1771755080235
41. 1771755082086
42. 1771755083990
43. 1771755085842
44. 1771755087747
45. 1771755089598
46. 1771755091502
47. 1771755093354
48. 1771755095256
49. 1771755097110
50. 1771755099013
51. 1771755100866
52. 1771755102769
53. 1771755104622
54. 1771755106525
55. 1771755108329
56. 1771755110231
57. 1771755112084
58. 1771755113988
59. 1771755115842
60. 1771755117743
61. 1771755119598
62. 1771755121498
63. 1771755123353
64. 1771755125254
65. 1771755127109
66. 1771755129011
67. 1771755130867
68. 1771755132768
69. 1771755134622
70. 1771755136525
71. 1771755138380
72. 1771755140282
73. 1771755142138
74. 1771755143987
75. 1771755145847
76. 1771755147744
77. 1771755149606
78. 1771755151550
79. 1771755153414
80. 1771755155355
81. 1771755157222
82. 1771755159161
83. 1771755161030
84. 1771755162967

# 10 27 29 63 65 99 101 135 137 171 173 207 209 243 245 279 281 315 317 351 353 387 389 423 425 459 461 495 497 531 533 567 569 603 605 639 641 675 677 711 713 747 749 783 785 819 821 855 857 891 893 927 929 963 965 999 1001 1035 1037 1071 1073 1107 1109 1143 1145 1179 1181 1215 1217 1251 1253 1287 1289 1323 1325 1359 1361 1395 1397 1431 1433 1467 1469 1503 1505 #
LightZero MGTP Interface Ready
=1 LightZero_DarkChess

=2 1.0.0

=7 

=15 

=14 

[debug] move action_id=319, action=((7, 1), (7, 1)), 
[debug] current_player=1 (R), 
[debug] board[(7, 1)]=13, board[(7, 1)]=13, 
[debug] board state:
[[15 15 15 15]
 [15 15 15 15]
 [15 15 15 15]
 [15 15 15 15]
 [15 15 15 15]
 [15 15 15 15]
 [15 15 15 15]
 [15 13 15 15]], 

=11 

=16 

=12 b6 b6

[debug] move action_id=99, action=((2, 1), (2, 1)), 
[debug] current_player=0 (B), 
[debug] board[(2, 1)]=5, board[(2, 1)]=5, 
[debug] board state:
[[15 15 15 15]
 [15 15 15 15]
 [15  5 15 15]
 [15 15 15 15]
 [15 15 15 15]
 [15 15 15 15]
 [15 15 15 15]
 [15 13 15 15]], 

=11 

=16 

[debug] move action_id=66, action=((1, 2), (1, 2)), 
[debug] current_player=1 (R), 
[debug] board[(1, 2)]=12, board[(1, 2)]=12, 
[debug] board state:
[[15 15 15 15]
 [15 15 12 15]
 [15  5 15 15]
 [15 15 15 15]
 [15 15 15 15]
 [15 15 15 15]
 [15 15 15 15]
 [15 13 15 15]], 

=11 

=16 

=12 c8 c8

[debug] move action_id=22, action=((0, 2), (0, 2)), 
[debug] current_player=0 (B), 
[debug] board[(0, 2)]=13, board[(0, 2)]=13, 
[debug] board state:
[[15 15 13 15]
 [15 15 12 15]
 [15  5 15 15]
 [15 15 15 15]
 [15 15 15 15]
 [15 15 15 15]
 [15 15 15 15]
 [15 13 15 15]], 

=11 

=16 

[debug] move action_id=176, action=((4, 0), (4, 0)), 
[debug] current_player=1 (R), 
[debug] board[(4, 0)]=13, board[(4, 0)]=13, 
[debug] board state:
[[15 15 13 15]
 [15 15 12 15]
 [15  5 15 15]
 [15 15 15 15]
 [13 15 15 15]
 [15 15 15 15]
 [15 15 15 15]
 [15 13 15 15]], 

=11 

=16 

=12 b8 b8

[debug] move action_id=11, action=((0, 1), (0, 1)), 
[debug] current_player=0 (B), 
[debug] board[(0, 1)]=6, board[(0, 1)]=6, 
[debug] board state:
[[15  6 13 15]
 [15 15 12 15]
 [15  5 15 15]
 [15 15 15 15]
 [13 15 15 15]
 [15 15 15 15]
 [15 15 15 15]
 [15 13 15 15]], 

=11 

=16 

[debug] move action_id=33, action=((0, 3), (0, 3)), 
[debug] current_player=1 (R), 
[debug] board[(0, 3)]=6, board[(0, 3)]=6, 
[debug] board state:
[[15  6 13  6]
 [15 15 12 15]
 [15  5 15 15]
 [15 15 15 15]
 [13 15 15 15]
 [15 15 15 15]
 [15 15 15 15]
 [15 13 15 15]], 

=11 

=16 

=12 a8 a8

[debug] move action_id=0, action=((0, 0), (0, 0)), 
[debug] current_player=0 (B), 
[debug] board[(0, 0)]=11, board[(0, 0)]=11, 
[debug] board state:
[[11  6 13  6]
 [15 15 12 15]
 [15  5 15 15]
 [15 15 15 15]
 [13 15 15 15]
 [15 15 15 15]
 [15 15 15 15]
 [15 13 15 15]], 

=11 

=16 

[debug] move action_id=110, action=((2, 2), (2, 2)), 
[debug] current_player=1 (R), 
[debug] board[(2, 2)]=6, board[(2, 2)]=6, 
[debug] board state:
[[11  6 13  6]
 [15 15 12 15]
 [15  5  6 15]
 [15 15 15 15]
 [13 15 15 15]
 [15 15 15 15]
 [15 15 15 15]
 [15 13 15 15]], 

=11 

=16 

=12 b8 c8

[debug] move action_id=20, action=((0, 1), (0, 2)), 
[debug] current_player=0 (B), 
[debug] board[(0, 1)]=14, board[(0, 2)]=6, 
[debug] board state:
[[11 14  6  6]
 [15 15 12 15]
 [15  5  6 15]
 [15 15 15 15]
 [13 15 15 15]
 [15 15 15 15]
 [15 15 15 15]
 [15 13 15 15]], 

=10 

=16 

[debug] move action_id=286, action=((6, 2), (6, 2)), 
[debug] current_player=1 (R), 
[debug] board[(6, 2)]=2, board[(6, 2)]=2, 
[debug] board state:
[[11 14  6  6]
 [15 15 12 15]
 [15  5  6 15]
 [15 15 15 15]
 [13 15 15 15]
 [15 15 15 15]
 [15 15  2 15]
 [15 13 15 15]], 

=11 

=16 

=12 c8 b8

[debug] move action_id=31, action=((0, 2), (0, 1)), 
[debug] current_player=0 (B), 
[debug] board[(0, 2)]=14, board[(0, 1)]=6, 
[debug] board state:
[[11  6 14  6]
 [15 15 12 15]
 [15  5  6 15]
 [15 15 15 15]
 [13 15 15 15]
 [15 15 15 15]
 [15 15  2 15]
 [15 13 15 15]], 

=10 

=16 

[debug] move action_id=209, action=((4, 3), (4, 3)), 
[debug] current_player=1 (R), 
[debug] board[(4, 3)]=4, board[(4, 3)]=4, 
[debug] board state:
[[11  6 14  6]
 [15 15 12 15]
 [15  5  6 15]
 [15 15 15 15]
 [13 15 15  4]
 [15 15 15 15]
 [15 15  2 15]
 [15 13 15 15]], 

=11 

=16 

=12 d8 c8

[debug] move action_id=43, action=((0, 3), (0, 2)), 
[debug] current_player=0 (B), 
[debug] board[(0, 3)]=14, board[(0, 2)]=6, 
[debug] board state:
[[11  6  6 14]
 [15 15 12 15]
 [15  5  6 15]
 [15 15 15 15]
 [13 15 15  4]
 [15 15 15 15]
 [15 15  2 15]
 [15 13 15 15]], 

=10 

=16 

[debug] move action_id=220, action=((5, 0), (5, 0)), 
[debug] current_player=1 (R), 
[debug] board[(5, 0)]=5, board[(5, 0)]=5, 
[debug] board state:
[[11  6  6 14]
 [15 15 12 15]
 [15  5  6 15]
 [15 15 15 15]
 [13 15 15  4]
 [ 5 15 15 15]
 [15 15  2 15]
 [15 13 15 15]], 

=11 

=16 

=12 c8 d8

[debug] move action_id=32, action=((0, 2), (0, 3)), 
[debug] current_player=0 (B), 
[debug] board[(0, 2)]=14, board[(0, 3)]=6, 
[debug] board state:
[[11  6 14  6]
 [15 15 12 15]
 [15  5  6 15]
 [15 15 15 15]
 [13 15 15  4]
 [ 5 15 15 15]
 [15 15  2 15]
 [15 13 15 15]], 

=10 

=16 

[debug] move action_id=330, action=((7, 2), (7, 2)), 
[debug] current_player=1 (R), 
[debug] board[(7, 2)]=1, board[(7, 2)]=1, 
[debug] board state:
[[11  6 14  6]
 [15 15 12 15]
 [15  5  6 15]
 [15 15 15 15]
 [13 15 15  4]
 [ 5 15 15 15]
 [15 15  2 15]
 [15 13  1 15]], 

=11 

=16 

=12 b8 c8

[debug] move action_id=20, action=((0, 1), (0, 2)), 
[debug] current_player=0 (B), 
[debug] board[(0, 1)]=14, board[(0, 2)]=6, 
[debug] board state:
[[11 14  6  6]
 [15 15 12 15]
 [15  5  6 15]
 [15 15 15 15]
 [13 15 15  4]
 [ 5 15 15 15]
 [15 15  2 15]
 [15 13  1 15]], 

=10 

=16 

[debug] move action_id=264, action=((6, 0), (6, 0)), 
[debug] current_player=1 (R), 
[debug] board[(6, 0)]=10, board[(6, 0)]=10, 
[debug] board state:
[[11 14  6  6]
 [15 15 12 15]
 [15  5  6 15]
 [15 15 15 15]
 [13 15 15  4]
 [ 5 15 15 15]
 [10 15  2 15]
 [15 13  1 15]], 

=11 

=16 

=12 c8 b8

[debug] move action_id=31, action=((0, 2), (0, 1)), 
[debug] current_player=0 (B), 
[debug] board[(0, 2)]=14, board[(0, 1)]=6, 
[debug] board state:
[[11  6 14  6]
 [15 15 12 15]
 [15  5  6 15]
 [15 15 15 15]
 [13 15 15  4]
 [ 5 15 15 15]
 [10 15  2 15]
 [15 13  1 15]], 

=10 

=16 

[debug] move action_id=88, action=((2, 0), (2, 0)), 
[debug] current_player=1 (R), 
[debug] board[(2, 0)]=13, board[(2, 0)]=13, 
[debug] board state:
[[11  6 14  6]
 [15 15 12 15]
 [13  5  6 15]
 [15 15 15 15]
 [13 15 15  4]
 [ 5 15 15 15]
 [10 15  2 15]
 [15 13  1 15]], 

=11 

=16 

=12 b8 c8

[debug] move action_id=20, action=((0, 1), (0, 2)), 
[debug] current_player=0 (B), 
[debug] board[(0, 1)]=14, board[(0, 2)]=6, 
[debug] board state:
[[11 14  6  6]
 [15 15 12 15]
 [13  5  6 15]
 [15 15 15 15]
 [13 15 15  4]
 [ 5 15 15 15]
 [10 15  2 15]
 [15 13  1 15]], 

=10 

=16 

[debug] move action_id=242, action=((5, 2), (5, 2)), 
[debug] current_player=1 (R), 
[debug] board[(5, 2)]=8, board[(5, 2)]=8, 
[debug] board state:
[[11 14  6  6]
 [15 15 12 15]
 [13  5  6 15]
 [15 15 15 15]
 [13 15 15  4]
 [ 5 15  8 15]
 [10 15  2 15]
 [15 13  1 15]], 

=11 

=16 

=12 c8 b8

[debug] move action_id=31, action=((0, 2), (0, 1)), 
[debug] current_player=0 (B), 
[debug] board[(0, 2)]=14, board[(0, 1)]=6, 
[debug] board state:
[[11  6 14  6]
 [15 15 12 15]
 [13  5  6 15]
 [15 15 15 15]
 [13 15 15  4]
 [ 5 15  8 15]
 [10 15  2 15]
 [15 13  1 15]], 

=10 

=16 

[debug] move action_id=308, action=((7, 0), (7, 0)), 
[debug] current_player=1 (R), 
[debug] board[(7, 0)]=11, board[(7, 0)]=11, 
[debug] board state:
[[11  6 14  6]
 [15 15 12 15]
 [13  5  6 15]
 [15 15 15 15]
 [13 15 15  4]
 [ 5 15  8 15]
 [10 15  2 15]
 [11 13  1 15]], 

=11 

=16 

=12 b8 c8

[debug] move action_id=20, action=((0, 1), (0, 2)), 
[debug] current_player=0 (B), 
[debug] board[(0, 1)]=14, board[(0, 2)]=6, 
[debug] board state:
[[11 14  6  6]
 [15 15 12 15]
 [13  5  6 15]
 [15 15 15 15]
 [13 15 15  4]
 [ 5 15  8 15]
 [10 15  2 15]
 [11 13  1 15]], 

=10 

=16 

[debug] move action_id=154, action=((3, 2), (3, 2)), 
[debug] current_player=1 (R), 
[debug] board[(3, 2)]=12, board[(3, 2)]=12, 
[debug] board state:
[[11 14  6  6]
 [15 15 12 15]
 [13  5  6 15]
 [15 15 12 15]
 [13 15 15  4]
 [ 5 15  8 15]
 [10 15  2 15]
 [11 13  1 15]], 

=11 

=16 

=12 c8 b8

[debug] move action_id=31, action=((0, 2), (0, 1)), 
[debug] current_player=0 (B), 
[debug] board[(0, 2)]=14, board[(0, 1)]=6, 
[debug] board state:
[[11  6 14  6]
 [15 15 12 15]
 [13  5  6 15]
 [15 15 12 15]
 [13 15 15  4]
 [ 5 15  8 15]
 [10 15  2 15]
 [11 13  1 15]], 

=10 

=16 

[debug] move action_id=44, action=((1, 0), (1, 0)), 
[debug] current_player=1 (R), 
[debug] board[(1, 0)]=9, board[(1, 0)]=9, 
[debug] board state:
[[11  6 14  6]
 [ 9 15 12 15]
 [13  5  6 15]
 [15 15 12 15]
 [13 15 15  4]
 [ 5 15  8 15]
 [10 15  2 15]
 [11 13  1 15]], 

=11 

=16 

=12 d8 c8

[debug] move action_id=43, action=((0, 3), (0, 2)), 
[debug] current_player=0 (B), 
[debug] board[(0, 3)]=14, board[(0, 2)]=6, 
[debug] board state:
[[11  6  6 14]
 [ 9 15 12 15]
 [13  5  6 15]
 [15 15 12 15]
 [13 15 15  4]
 [ 5 15  8 15]
 [10 15  2 15]
 [11 13  1 15]], 

=10 

=16 

[debug] move action_id=198, action=((4, 2), (4, 2)), 
[debug] current_player=1 (R), 
[debug] board[(4, 2)]=1, board[(4, 2)]=1, 
[debug] board state:
[[11  6  6 14]
 [ 9 15 12 15]
 [13  5  6 15]
 [15 15 12 15]
 [13 15  1  4]
 [ 5 15  8 15]
 [10 15  2 15]
 [11 13  1 15]], 

=11 

=16 

=12 c8 d8

[debug] move action_id=32, action=((0, 2), (0, 3)), 
[debug] current_player=0 (B), 
[debug] board[(0, 2)]=14, board[(0, 3)]=6, 
[debug] board state:
[[11  6 14  6]
 [ 9 15 12 15]
 [13  5  6 15]
 [15 15 12 15]
 [13 15  1  4]
 [ 5 15  8 15]
 [10 15  2 15]
 [11 13  1 15]], 

=10 

=16 

[debug] move action_id=23, action=((1, 2), (0, 2)), 
[debug] current_player=1 (R), 
[debug] board[(1, 2)]=14, board[(0, 2)]=12, 
[debug] board state:
[[11  6 12  6]
 [ 9 15 14 15]
 [13  5  6 15]
 [15 15 12 15]
 [13 15  1  4]
 [ 5 15  8 15]
 [10 15  2 15]
 [11 13  1 15]], 

=10 

=16 

=12 b7 b7

[debug] move action_id=55, action=((1, 1), (1, 1)), 
[debug] current_player=0 (B), 
[debug] board[(1, 1)]=0, board[(1, 1)]=0, 
[debug] board state:
[[11  6 12  6]
 [ 9  0 14 15]
 [13  5  6 15]
 [15 15 12 15]
 [13 15  1  4]
 [ 5 15  8 15]
 [10 15  2 15]
 [11 13  1 15]], 

=11 

=16 

[debug] move action_id=67, action=((0, 2), (1, 2)), 
[debug] current_player=1 (R), 
[debug] board[(0, 2)]=14, board[(1, 2)]=12, 
[debug] board state:
[[11  6 14  6]
 [ 9  0 12 15]
 [13  5  6 15]
 [15 15 12 15]
 [13 15  1  4]
 [ 5 15  8 15]
 [10 15  2 15]
 [11 13  1 15]], 

=10 

=16 

=12 b8 c8

[debug] move action_id=20, action=((0, 1), (0, 2)), 
[debug] current_player=0 (B), 
[debug] board[(0, 1)]=14, board[(0, 2)]=6, 
[debug] board state:
[[11 14  6  6]
 [ 9  0 12 15]
 [13  5  6 15]
 [15 15 12 15]
 [13 15  1  4]
 [ 5 15  8 15]
 [10 15  2 15]
 [11 13  1 15]], 

=10 

=16 

[debug] move action_id=275, action=((6, 1), (6, 1)), 
[debug] current_player=1 (R), 
[debug] board[(6, 1)]=13, board[(6, 1)]=13, 
[debug] board state:
[[11 14  6  6]
 [ 9  0 12 15]
 [13  5  6 15]
 [15 15 12 15]
 [13 15  1  4]
 [ 5 15  8 15]
 [10 13  2 15]
 [11 13  1 15]], 

=11 

=16 

=12 b7 b8

[debug] move action_id=12, action=((1, 1), (0, 1)), 
[debug] current_player=0 (B), 
[debug] board[(1, 1)]=14, board[(0, 1)]=0, 
[debug] board state:
[[11  0  6  6]
 [ 9 14 12 15]
 [13  5  6 15]
 [15 15 12 15]
 [13 15  1  4]
 [ 5 15  8 15]
 [10 13  2 15]
 [11 13  1 15]], 

=10 

=16 

[debug] move action_id=203, action=((5, 2), (4, 2)), 
[debug] current_player=1 (R), 
[debug] board[(5, 2)]=14, board[(4, 2)]=8, 
[debug] board state:
[[11  0  6  6]
 [ 9 14 12 15]
 [13  5  6 15]
 [15 15 12 15]
 [13 15  8  4]
 [ 5 15 14 15]
 [10 13  2 15]
 [11 13  1 15]], 

=10 

=16 

=12 b8 a8

[debug] move action_id=19, action=((0, 1), (0, 0)), 
[debug] current_player=0 (B), 
[debug] board[(0, 1)]=14, board[(0, 0)]=0, 
[debug] board state:
[[ 0 14  6  6]
 [ 9 14 12 15]
 [13  5  6 15]
 [15 15 12 15]
 [13 15  8  4]
 [ 5 15 14 15]
 [10 13  2 15]
 [11 13  1 15]], 

=10 

=16 

[debug] move action_id=247, action=((4, 2), (5, 2)), 
[debug] current_player=1 (R), 
[debug] board[(4, 2)]=14, board[(5, 2)]=8, 
[debug] board state:
[[ 0 14  6  6]
 [ 9 14 12 15]
 [13  5  6 15]
 [15 15 12 15]
 [13 15 14  4]
 [ 5 15  8 15]
 [10 13  2 15]
 [11 13  1 15]], 

=10 

=16 

=12 a8 a7

[debug] move action_id=45, action=((0, 0), (1, 0)), 
[debug] current_player=0 (B), 
[debug] board[(0, 0)]=14, board[(1, 0)]=0, 
[debug] board state:
[[14 14  6  6]
 [ 0 14 12 15]
 [13  5  6 15]
 [15 15 12 15]
 [13 15 14  4]
 [ 5 15  8 15]
 [10 13  2 15]
 [11 13  1 15]], 

=10 

=16 

[debug] move action_id=132, action=((3, 0), (3, 0)), 
[debug] current_player=1 (R), 
[debug] board[(3, 0)]=10, board[(3, 0)]=10, 
[debug] board state:
[[14 14  6  6]
 [ 0 14 12 15]
 [13  5  6 15]
 [10 15 12 15]
 [13 15 14  4]
 [ 5 15  8 15]
 [10 13  2 15]
 [11 13  1 15]], 

=11 

=16 

=12 a7 a8

[debug] move action_id=1, action=((1, 0), (0, 0)), 
[debug] current_player=0 (B), 
[debug] board[(1, 0)]=14, board[(0, 0)]=0, 
[debug] board state:
[[ 0 14  6  6]
 [14 14 12 15]
 [13  5  6 15]
 [10 15 12 15]
 [13 15 14  4]
 [ 5 15  8 15]
 [10 13  2 15]
 [11 13  1 15]], 

=10 

=16 

[debug] move action_id=341, action=((7, 3), (7, 3)), 
[debug] current_player=1 (R), 
[debug] board[(7, 3)]=9, board[(7, 3)]=9, 
[debug] board state:
[[ 0 14  6  6]
 [14 14 12 15]
 [13  5  6 15]
 [10 15 12 15]
 [13 15 14  4]
 [ 5 15  8 15]
 [10 13  2 15]
 [11 13  1  9]], 

=11 

=16 

=12 c8 b8

[debug] move action_id=31, action=((0, 2), (0, 1)), 
[debug] current_player=0 (B), 
[debug] board[(0, 2)]=14, board[(0, 1)]=6, 
[debug] board state:
[[ 0  6 14  6]
 [14 14 12 15]
 [13  5  6 15]
 [10 15 12 15]
 [13 15 14  4]
 [ 5 15  8 15]
 [10 13  2 15]
 [11 13  1  9]], 

=10 

=16 

[debug] move action_id=231, action=((5, 1), (5, 1)), 
[debug] current_player=1 (R), 
[debug] board[(5, 1)]=2, board[(5, 1)]=2, 
[debug] board state:
[[ 0  6 14  6]
 [14 14 12 15]
 [13  5  6 15]
 [10 15 12 15]
 [13 15 14  4]
 [ 5  2  8 15]
 [10 13  2 15]
 [11 13  1  9]], 

=11 

=16 

=12 b8 c8

[debug] move action_id=20, action=((0, 1), (0, 2)), 
[debug] current_player=0 (B), 
[debug] board[(0, 1)]=14, board[(0, 2)]=6, 
[debug] board state:
[[ 0 14  6  6]
 [14 14 12 15]
 [13  5  6 15]
 [10 15 12 15]
 [13 15 14  4]
 [ 5  2  8 15]
 [10 13  2 15]
 [11 13  1  9]], 

=10 

=16 

[debug] move action_id=203, action=((5, 2), (4, 2)), 
[debug] current_player=1 (R), 
[debug] board[(5, 2)]=14, board[(4, 2)]=8, 
[debug] board state:
[[ 0 14  6  6]
 [14 14 12 15]
 [13  5  6 15]
 [10 15 12 15]
 [13 15  8  4]
 [ 5  2 14 15]
 [10 13  2 15]
 [11 13  1  9]], 

=10 

=16 

=12 a8 b8

[debug] move action_id=8, action=((0, 0), (0, 1)), 
[debug] current_player=0 (B), 
[debug] board[(0, 0)]=14, board[(0, 1)]=0, 
[debug] board state:
[[14  0  6  6]
 [14 14 12 15]
 [13  5  6 15]
 [10 15 12 15]
 [13 15  8  4]
 [ 5  2 14 15]
 [10 13  2 15]
 [11 13  1  9]], 

=10 

=16 

[debug] move action_id=46, action=((2, 0), (1, 0)), 
[debug] current_player=1 (R), 
[debug] board[(2, 0)]=14, board[(1, 0)]=13, 
[debug] board state:
[[14  0  6  6]
 [13 14 12 15]
 [14  5  6 15]
 [10 15 12 15]
 [13 15  8  4]
 [ 5  2 14 15]
 [10 13  2 15]
 [11 13  1  9]], 

=10 

=16 

=12 b8 a8

[debug] move action_id=19, action=((0, 1), (0, 0)), 
[debug] current_player=0 (B), 
[debug] board[(0, 1)]=14, board[(0, 0)]=0, 
[debug] board state:
[[ 0 14  6  6]
 [13 14 12 15]
 [14  5  6 15]
 [10 15 12 15]
 [13 15  8  4]
 [ 5  2 14 15]
 [10 13  2 15]
 [11 13  1  9]], 

=10 

=16 

[debug] move action_id=247, action=((4, 2), (5, 2)), 
[debug] current_player=1 (R), 
[debug] board[(4, 2)]=14, board[(5, 2)]=8, 
[debug] board state:
[[ 0 14  6  6]
 [13 14 12 15]
 [14  5  6 15]
 [10 15 12 15]
 [13 15 14  4]
 [ 5  2  8 15]
 [10 13  2 15]
 [11 13  1  9]], 

=10 

=16 

=12 c8 b8

[debug] move action_id=31, action=((0, 2), (0, 1)), 
[debug] current_player=0 (B), 
[debug] board[(0, 2)]=14, board[(0, 1)]=6, 
[debug] board state:
[[ 0  6 14  6]
 [13 14 12 15]
 [14  5  6 15]
 [10 15 12 15]
 [13 15 14  4]
 [ 5  2  8 15]
 [10 13  2 15]
 [11 13  1  9]], 

=10 

=16 

[debug] move action_id=203, action=((5, 2), (4, 2)), 
[debug] current_player=1 (R), 
[debug] board[(5, 2)]=14, board[(4, 2)]=8, 
[debug] board state:
[[ 0  6 14  6]
 [13 14 12 15]
 [14  5  6 15]
 [10 15 12 15]
 [13 15  8  4]
 [ 5  2 14 15]
 [10 13  2 15]
 [11 13  1  9]], 

=10 

=16 

=12 b8 c8

[debug] move action_id=20, action=((0, 1), (0, 2)), 
[debug] current_player=0 (B), 
[debug] board[(0, 1)]=14, board[(0, 2)]=6, 
[debug] board state:
[[ 0 14  6  6]
 [13 14 12 15]
 [14  5  6 15]
 [10 15 12 15]
 [13 15  8  4]
 [ 5  2 14 15]
 [10 13  2 15]
 [11 13  1  9]], 

=10 

=16 

[debug] move action_id=247, action=((4, 2), (5, 2)), 
[debug] current_player=1 (R), 
[debug] board[(4, 2)]=14, board[(5, 2)]=8, 
[debug] board state:
[[ 0 14  6  6]
 [13 14 12 15]
 [14  5  6 15]
 [10 15 12 15]
 [13 15 14  4]
 [ 5  2  8 15]
 [10 13  2 15]
 [11 13  1  9]], 

=10 

=16 

=12 a8 b8

[debug] move action_id=8, action=((0, 0), (0, 1)), 
[debug] current_player=0 (B), 
[debug] board[(0, 0)]=14, board[(0, 1)]=0, 
[debug] board state:
[[14  0  6  6]
 [13 14 12 15]
 [14  5  6 15]
 [10 15 12 15]
 [13 15 14  4]
 [ 5  2  8 15]
 [10 13  2 15]
 [11 13  1  9]], 

=10 

=16 

[debug] move action_id=203, action=((5, 2), (4, 2)), 
[debug] current_player=1 (R), 
[debug] board[(5, 2)]=14, board[(4, 2)]=8, 
[debug] board state:
