INITIAL
* 5:47pm Feb 22, 2026
* a0_mu vs a1_stmu
* 1 2 2 2 2 2 5 1 2 2 2 2 2 5
* X X X X
* X X X X
* X X X X
* X X X X
* X X X X
* X X X X
* X X X X
* X X X X
* first 1
* time 900
* 1. b1(n) b8(p)
* 2. c7(G) c8(P)
* 3. a6(C) c8-b8
* 4. b5(P) a8(g)
* 5. a7(c) d5(R)
* 6. a5(g) a6-a8
* 7. c3(r) c7-c8
* 8. d7(p) d8(M)
* 9. c6(R) b7(p)
* 10. a3(r) b8-b7
* 11. c2(P) a8-b8
* 12. b2(p) b8-a8
* 13. d3(C) a8-b8
* 14. d1(n) b8-a8
* 15. b3(P) a8-b8
* 16. a1(M) b7-c7
* 17. b6(m) b8-b7
* 18. a4(m) b7-b8
* 19. c5(G) b8-a8
* 20. c4(k) a8-b8
* 21. c1(p) b8-a8
* 22. d2(c) c8-b8
* 23. d4(N) b8-c8
* 24. b4(K) a8-b8
* 25. d6(P) b8-b7
* 26. a7-a6 b7-b8
* 27. b6-c6 b8-a8
* 28. c6-b6 c8-b8
* 29. b6-b5 c7-c8
* 30. a2(N) a8-a7
* 31. a6-b6 b8-a8
* 32. d7-c7 a8-b8
* 33. c4-d4 b8-a8
* 34. c3-c4 a8-b8
* 35. c4-c3 a7-a8
* 36. c3-c4 a8-a7
* 37. c4-c3 b8-a8
* 38. c3-c4 a8-b8
* 39. c4-c3 b8-a8
* 40. c3-c4 a8-b8
* 41. c4-c3 a7-b7
* 42. c3-c4 b7-a7
* 43. c4-c3 b8-a8
* 44. c3-c4 a8-b8
* 45. c4-c3 a7-a8
* 46. c3-c4 a8-a7
* 47. c4-c3 a7-b7
* 48. c3-c4 c8-c7
* 49. c4-c3 b8-a8
* 50. c3-c4 b7-b8
* 51. c4-c3 c7-c8
* 52. c3-c4 a8-a7
* 53. c4-c3 a7-a8
* 54. c3-c4 a8-a7
* 55. b6-c6 b8-a8
* 56. c4-c3 a8-b8
* 57. d4-c4 a7-a8
* 58. c6-c7 b8-b7
* 59. c4-d4 a8-b8
* 60. c3-c4 b7-a7
* 61. c4-c3 a7-a8
* 62. c3-c4 a8-a7
* 63. c4-c3 a7-a8
* 64. c3-c4 a8-a7
* 65. c4-c3 b8-a8
* 66. c3-c4 a8-b8
* 67. c4-c3 a7-a8
* 68. c3-c4 d8-d7
* 69. c4-c3 c8-d8
* 70. c3-c4 d8-c8
* 71. c4-c3 a8-a7
* 72. c3-c4 a7-a8
* 73. c4-c3 a8-a7
* 74. c3-c4 b8-a8
* 75. c4-c3 a8-b8
* 76. c3-c4 a7-a8
* 77. c4-c3 d7-d8
* 78. c3-c4 a8-a7
* 79. c4-c3 a7-a8
* 80. c3-c4 a8-a7
* 81. c4-c3 a7-b7
* 82. c3-c4 d6-d7
* 83. c4-c3 b8-a8
* 84. d4-c4 b7-b8
* 85. c4-d4 a8-a7
* 86. d4-c4 a7-a8
* 87. c4-d4 a8-a7
* 88. d4-c4 a7-a8
* 89. c4-d4 a8-a7
* 90. d4-c4 a7-a8
* PositionRepetitionDraw,3,4 a0_mu Draw 0.500000,0.500000
* Comment 0 0
0. 1771753652993
1. 1771753652993
2. 1771753655082
3. 1771753656940
4. 1771753658839
5. 1771753660697
6. 1771753662596
7. 1771753664455
8. 1771753666352
9. 1771753668214
10. 1771753670160
11. 1771753672023
12. 1771753673968
13. 1771753675830
14. 1771753677775
15. 1771753679638
16. 1771753681583
17. 1771753683442
18. 1771753685342
19. 1771753687197
20. 1771753689099
21. 1771753690954
22. 1771753692855
23. 1771753694710
24. 1771753696611
25. 1771753698466
26. 1771753700366
27. 1771753702220
28. 1771753704121
29. 1771753705977
30. 1771753707876
31. 1771753709784
32. 1771753711685
33. 1771753713542
34. 1771753715444
35. 1771753717299
36. 1771753719202
37. 1771753721055
38. 1771753722960
39. 1771753724812
40. 1771753726716
41. 1771753728568
42. 1771753730470
43. 1771753732324
44. 1771753734227
45. 1771753736081
46. 1771753737983
47. 1771753739838
48. 1771753741690
49. 1771753743547
50. 1771753745445
51. 1771753747302
52. 1771753749202
53. 1771753751058
54. 1771753752959
55. 1771753754816
56. 1771753756663
57. 1771753758523
58. 1771753760419
59. 1771753762281
60. 1771753764225
61. 1771753766089
62. 1771753767982
63. 1771753769849
64. 1771753771789
65. 1771753773656
66. 1771753775546
67. 1771753777413
68. 1771753779352
69. 1771753781220
70. 1771753783158
71. 1771753785028
72. 1771753786965
73. 1771753788836
74. 1771753790770
75. 1771753792645
76. 1771753794576
77. 1771753796451
78. 1771753798333
79. 1771753800205
80. 1771753802088
81. 1771753803960
82. 1771753805845
83. 1771753807715
84. 1771753809601
85. 1771753811471
86. 1771753813359
87. 1771753815228
88. 1771753817114
89. 1771753818933
90. 1771753820820
91. 1771753822688
92. 1771753824576
93. 1771753826443
94. 1771753828333
95. 1771753830198
96. 1771753832091
97. 1771753833954
98. 1771753835848
99. 1771753837712
100. 1771753839657
101. 1771753841519
102. 1771753843365
103. 1771753845175
104. 1771753847074
105. 1771753848932
106. 1771753850782
107. 1771753852639
108. 1771753854488
109. 1771753856345
110. 1771753858195
111. 1771753860052
112. 1771753861903
113. 1771753863758
114. 1771753865611
115. 1771753867466
116. 1771753869319
117. 1771753871175
118. 1771753873027
119. 1771753874884
120. 1771753876734
121. 1771753878544
122. 1771753880391
123. 1771753882202
124. 1771753884097
125. 1771753885910
126. 1771753887803
127. 1771753889667
128. 1771753891561
129. 1771753893374
130. 1771753895268
131. 1771753897082
132. 1771753898977
133. 1771753900791
134. 1771753902684
135. 1771753904549
136. 1771753906440
137. 1771753908256
138. 1771753910148
139. 1771753912015
140. 1771753913905
141. 1771753915774
142. 1771753917613
143. 1771753919432
144. 1771753921320
145. 1771753923141
146. 1771753925029
147. 1771753926848
148. 1771753928737
149. 1771753930604
150. 1771753932546
151. 1771753934411
152. 1771753936353
153. 1771753938218
154. 1771753940111
155. 1771753941975
156. 1771753943869
157. 1771753945733
158. 1771753947678
159. 1771753949540
160. 1771753951434
161. 1771753953297
162. 1771753955193
163. 1771753957055
164. 1771753958900
165. 1771753960761
166. 1771753962607
167. 1771753964468
168. 1771753966366
169. 1771753968224
170. 1771753970073
171. 1771753971880
172. 1771753973731
173. 1771753975587
174. 1771753977438
175. 1771753979243
176. 1771753981095
177. 1771753982900
178. 1771753984702
179. 1771753986555
180. 1771753988410

# 10 27 29 63 65 99 101 135 137 171 173 207 209 243 245 279 281 315 317 351 353 387 389 423 425 459 461 495 497 531 533 567 569 603 605 639 641 675 677 711 713 747 749 783 785 819 821 855 857 891 893 927 929 963 965 999 1001 1035 1037 1071 1073 1107 1109 1143 1145 1179 1181 1215 1217 1251 1253 1287 1289 1323 1325 1359 1361 1395 1397 1431 1433 1467 1469 1503 1505 1539 1541 1575 1577 1611 1613 1647 1649 1683 1685 1719 1721 1755 1757 1791 1793 1827 1829 1863 1865 1899 1901 1935 1937 1971 1973 2007 2009 2043 2045 2079 2081 2115 2117 2151 2153 2187 2189 2223 2225 2259 2261 2295 2297 2331 2333 2367 2369 2403 2405 2439 2441 2475 2477 2511 2513 2547 2549 2583 2585 2619 2621 2655 2657 2691 2693 2727 2729 2763 2765 2799 2801 2835 2837 2871 2873 2907 2909 2943 2945 2979 2981 3015 3017 3051 3053 3087 3089 3123 3125 3159 3161 3195 3197 3231 3233 #
LightZero MGTP Interface Ready
=1 LightZero_DarkChess

=2 1.0.0

=7 

=15 

=14 

[debug] move action_id=319, action=((7, 1), (7, 1)), 
[debug] current_player=1 (R), 
[debug] board[(7, 1)]=11, board[(7, 1)]=11, 
[debug] board state:
[[15 15 15 15]
 [15 15 15 15]
 [15 15 15 15]
 [15 15 15 15]
 [15 15 15 15]
 [15 15 15 15]
 [15 15 15 15]
 [15 11 15 15]], 

=11 

=16 

=12 b8 b8

[debug] move action_id=11, action=((0, 1), (0, 1)), 
[debug] current_player=0 (B), 
[debug] board[(0, 1)]=13, board[(0, 1)]=13, 
[debug] board state:
[[15 13 15 15]
 [15 15 15 15]
 [15 15 15 15]
 [15 15 15 15]
 [15 15 15 15]
 [15 15 15 15]
 [15 15 15 15]
 [15 11 15 15]], 

=11 

=16 

[debug] move action_id=66, action=((1, 2), (1, 2)), 
[debug] current_player=1 (R), 
[debug] board[(1, 2)]=1, board[(1, 2)]=1, 
[debug] board state:
[[15 13 15 15]
 [15 15  1 15]
 [15 15 15 15]
 [15 15 15 15]
 [15 15 15 15]
 [15 15 15 15]
 [15 15 15 15]
 [15 11 15 15]], 

=11 

=16 

=12 c8 c8

[debug] move action_id=22, action=((0, 2), (0, 2)), 
[debug] current_player=0 (B), 
[debug] board[(0, 2)]=6, board[(0, 2)]=6, 
[debug] board state:
[[15 13  6 15]
 [15 15  1 15]
 [15 15 15 15]
 [15 15 15 15]
 [15 15 15 15]
 [15 15 15 15]
 [15 15 15 15]
 [15 11 15 15]], 

=11 

=16 

[debug] move action_id=88, action=((2, 0), (2, 0)), 
[debug] current_player=1 (R), 
[debug] board[(2, 0)]=5, board[(2, 0)]=5, 
[debug] board state:
[[15 13  6 15]
 [15 15  1 15]
 [ 5 15 15 15]
 [15 15 15 15]
 [15 15 15 15]
 [15 15 15 15]
 [15 15 15 15]
 [15 11 15 15]], 

=11 

=16 

=12 c8 b8

[debug] move action_id=31, action=((0, 2), (0, 1)), 
[debug] current_player=0 (B), 
[debug] board[(0, 2)]=14, board[(0, 1)]=6, 
[debug] board state:
[[15  6 14 15]
 [15 15  1 15]
 [ 5 15 15 15]
 [15 15 15 15]
 [15 15 15 15]
 [15 15 15 15]
 [15 15 15 15]
 [15 11 15 15]], 

=10 

=16 

[debug] move action_id=143, action=((3, 1), (3, 1)), 
[debug] current_player=1 (R), 
[debug] board[(3, 1)]=6, board[(3, 1)]=6, 
[debug] board state:
[[15  6 14 15]
 [15 15  1 15]
 [ 5 15 15 15]
 [15  6 15 15]
 [15 15 15 15]
 [15 15 15 15]
 [15 15 15 15]
 [15 11 15 15]], 

=11 

=16 

=12 a8 a8

[debug] move action_id=0, action=((0, 0), (0, 0)), 
[debug] current_player=0 (B), 
[debug] board[(0, 0)]=8, board[(0, 0)]=8, 
[debug] board state:
[[ 8  6 14 15]
 [15 15  1 15]
 [ 5 15 15 15]
 [15  6 15 15]
 [15 15 15 15]
 [15 15 15 15]
 [15 15 15 15]
 [15 11 15 15]], 

=11 

=16 

[debug] move action_id=44, action=((1, 0), (1, 0)), 
[debug] current_player=1 (R), 
[debug] board[(1, 0)]=12, board[(1, 0)]=12, 
[debug] board state:
[[ 8  6 14 15]
 [12 15  1 15]
 [ 5 15 15 15]
 [15  6 15 15]
 [15 15 15 15]
 [15 15 15 15]
 [15 15 15 15]
 [15 11 15 15]], 

=11 

=16 

=12 d5 d5

[debug] move action_id=165, action=((3, 3), (3, 3)), 
[debug] current_player=0 (B), 
[debug] board[(3, 3)]=3, board[(3, 3)]=3, 
[debug] board state:
[[ 8  6 14 15]
 [12 15  1 15]
 [ 5 15 15 15]
 [15  6 15  3]
 [15 15 15 15]
 [15 15 15 15]
 [15 15 15 15]
 [15 11 15 15]], 

=11 

=16 

[debug] move action_id=132, action=((3, 0), (3, 0)), 
[debug] current_player=1 (R), 
[debug] board[(3, 0)]=8, board[(3, 0)]=8, 
[debug] board state:
[[ 8  6 14 15]
 [12 15  1 15]
 [ 5 15 15 15]
 [ 8  6 15  3]
 [15 15 15 15]
 [15 15 15 15]
 [15 15 15 15]
 [15 11 15 15]], 

=11 

=16 

=12 a6 a8

[debug] move action_id=2, action=((2, 0), (0, 0)), 
[debug] current_player=0 (B), 
[debug] board[(2, 0)]=14, board[(0, 0)]=5, 
[debug] board state:
[[ 5  6 14 15]
 [12 15  1 15]
 [14 15 15 15]
 [ 8  6 15  3]
 [15 15 15 15]
 [15 15 15 15]
 [15 15 15 15]
 [15 11 15 15]], 

=10 

=16 

[debug] move action_id=242, action=((5, 2), (5, 2)), 
[debug] current_player=1 (R), 
[debug] board[(5, 2)]=10, board[(5, 2)]=10, 
[debug] board state:
[[ 5  6 14 15]
 [12 15  1 15]
 [14 15 15 15]
 [ 8  6 15  3]
 [15 15 15 15]
 [15 15 10 15]
 [15 15 15 15]
 [15 11 15 15]], 

=11 

=16 

=12 c7 c8

[debug] move action_id=23, action=((1, 2), (0, 2)), 
[debug] current_player=0 (B), 
[debug] board[(1, 2)]=14, board[(0, 2)]=1, 
[debug] board state:
[[ 5  6  1 15]
 [12 15 14 15]
 [14 15 15 15]
 [ 8  6 15  3]
 [15 15 15 15]
 [15 15 10 15]
 [15 15 15 15]
 [15 11 15 15]], 

=10 

=16 

[debug] move action_id=77, action=((1, 3), (1, 3)), 
[debug] current_player=1 (R), 
[debug] board[(1, 3)]=13, board[(1, 3)]=13, 
[debug] board state:
[[ 5  6  1 15]
 [12 15 14 13]
 [14 15 15 15]
 [ 8  6 15  3]
 [15 15 15 15]
 [15 15 10 15]
 [15 15 15 15]
 [15 11 15 15]], 

=11 

=16 

=12 d8 d8

[debug] move action_id=33, action=((0, 3), (0, 3)), 
[debug] current_player=0 (B), 
[debug] board[(0, 3)]=2, board[(0, 3)]=2, 
[debug] board state:
[[ 5  6  1  2]
 [12 15 14 13]
 [14 15 15 15]
 [ 8  6 15  3]
 [15 15 15 15]
 [15 15 10 15]
 [15 15 15 15]
 [15 11 15 15]], 

=11 

=16 

[debug] move action_id=110, action=((2, 2), (2, 2)), 
[debug] current_player=1 (R), 
[debug] board[(2, 2)]=3, board[(2, 2)]=3, 
[debug] board state:
[[ 5  6  1  2]
 [12 15 14 13]
 [14 15  3 15]
 [ 8  6 15  3]
 [15 15 15 15]
 [15 15 10 15]
 [15 15 15 15]
 [15 11 15 15]], 

=11 

=16 

=12 b7 b7

[debug] move action_id=55, action=((1, 1), (1, 1)), 
[debug] current_player=0 (B), 
[debug] board[(1, 1)]=13, board[(1, 1)]=13, 
[debug] board state:
[[ 5  6  1  2]
 [12 13 14 13]
 [14 15  3 15]
 [ 8  6 15  3]
 [15 15 15 15]
 [15 15 10 15]
 [15 15 15 15]
 [15 11 15 15]], 

=11 

=16 

[debug] move action_id=220, action=((5, 0), (5, 0)), 
[debug] current_player=1 (R), 
[debug] board[(5, 0)]=10, board[(5, 0)]=10, 
[debug] board state:
[[ 5  6  1  2]
 [12 13 14 13]
 [14 15  3 15]
 [ 8  6 15  3]
 [15 15 15 15]
 [10 15 10 15]
 [15 15 15 15]
 [15 11 15 15]], 

=11 

=16 

=12 b8 b7

[debug] move action_id=56, action=((0, 1), (1, 1)), 
[debug] current_player=0 (B), 
[debug] board[(0, 1)]=14, board[(1, 1)]=6, 
[debug] board state:
[[ 5 14  1  2]
 [12  6 14 13]
 [14 15  3 15]
 [ 8  6 15  3]
 [15 15 15 15]
 [10 15 10 15]
 [15 15 15 15]
 [15 11 15 15]], 

=10 

=16 

[debug] move action_id=286, action=((6, 2), (6, 2)), 
[debug] current_player=1 (R), 
[debug] board[(6, 2)]=6, board[(6, 2)]=6, 
[debug] board state:
[[ 5 14  1  2]
 [12  6 14 13]
 [14 15  3 15]
 [ 8  6 15  3]
 [15 15 15 15]
 [10 15 10 15]
 [15 15  6 15]
 [15 11 15 15]], 

=11 

=16 

=12 a8 b8

[debug] move action_id=8, action=((0, 0), (0, 1)), 
[debug] current_player=0 (B), 
[debug] board[(0, 0)]=14, board[(0, 1)]=5, 
[debug] board state:
[[14  5  1  2]
 [12  6 14 13]
 [14 15  3 15]
 [ 8  6 15  3]
 [15 15 15 15]
 [10 15 10 15]
 [15 15  6 15]
 [15 11 15 15]], 

=10 

=16 

[debug] move action_id=275, action=((6, 1), (6, 1)), 
[debug] current_player=1 (R), 
[debug] board[(6, 1)]=13, board[(6, 1)]=13, 
[debug] board state:
[[14  5  1  2]
 [12  6 14 13]
 [14 15  3 15]
 [ 8  6 15  3]
 [15 15 15 15]
 [10 15 10 15]
 [15 13  6 15]
 [15 11 15 15]], 

=11 

=16 

=12 b8 a8

[debug] move action_id=19, action=((0, 1), (0, 0)), 
[debug] current_player=0 (B), 
[debug] board[(0, 1)]=14, board[(0, 0)]=5, 
[debug] board state:
[[ 5 14  1  2]
 [12  6 14 13]
 [14 15  3 15]
 [ 8  6 15  3]
 [15 15 15 15]
 [10 15 10 15]
 [15 13  6 15]
 [15 11 15 15]], 

=10 

=16 

[debug] move action_id=253, action=((5, 3), (5, 3)), 
[debug] current_player=1 (R), 
[debug] board[(5, 3)]=5, board[(5, 3)]=5, 
[debug] board state:
[[ 5 14  1  2]
 [12  6 14 13]
 [14 15  3 15]
 [ 8  6 15  3]
 [15 15 15 15]
 [10 15 10  5]
 [15 13  6 15]
 [15 11 15 15]], 

=11 

=16 

=12 a8 b8

[debug] move action_id=8, action=((0, 0), (0, 1)), 
[debug] current_player=0 (B), 
[debug] board[(0, 0)]=14, board[(0, 1)]=5, 
[debug] board state:
[[14  5  1  2]
 [12  6 14 13]
 [14 15  3 15]
 [ 8  6 15  3]
 [15 15 15 15]
 [10 15 10  5]
 [15 13  6 15]
 [15 11 15 15]], 

=10 

=16 

[debug] move action_id=341, action=((7, 3), (7, 3)), 
[debug] current_player=1 (R), 
[debug] board[(7, 3)]=11, board[(7, 3)]=11, 
[debug] board state:
[[14  5  1  2]
 [12  6 14 13]
 [14 15  3 15]
 [ 8  6 15  3]
 [15 15 15 15]
 [10 15 10  5]
 [15 13  6 15]
 [15 11 15 11]], 

=11 

=16 

=12 b8 a8

[debug] move action_id=19, action=((0, 1), (0, 0)), 
[debug] current_player=0 (B), 
[debug] board[(0, 1)]=14, board[(0, 0)]=5, 
[debug] board state:
[[ 5 14  1  2]
 [12  6 14 13]
 [14 15  3 15]
 [ 8  6 15  3]
 [15 15 15 15]
 [10 15 10  5]
 [15 13  6 15]
 [15 11 15 11]], 

=10 

=16 

[debug] move action_id=231, action=((5, 1), (5, 1)), 
[debug] current_player=1 (R), 
[debug] board[(5, 1)]=6, board[(5, 1)]=6, 
[debug] board state:
[[ 5 14  1  2]
 [12  6 14 13]
 [14 15  3 15]
 [ 8  6 15  3]
 [15 15 15 15]
 [10  6 10  5]
 [15 13  6 15]
 [15 11 15 11]], 

=11 

=16 

=12 a8 b8

[debug] move action_id=8, action=((0, 0), (0, 1)), 
[debug] current_player=0 (B), 
[debug] board[(0, 0)]=14, board[(0, 1)]=5, 
[debug] board state:
[[14  5  1  2]
 [12  6 14 13]
 [14 15  3 15]
 [ 8  6 15  3]
 [15 15 15 15]
 [10  6 10  5]
 [15 13  6 15]
 [15 11 15 11]], 

=10 

=16 

[debug] move action_id=308, action=((7, 0), (7, 0)), 
[debug] current_player=1 (R), 
[debug] board[(7, 0)]=2, board[(7, 0)]=2, 
[debug] board state:
[[14  5  1  2]
 [12  6 14 13]
 [14 15  3 15]
 [ 8  6 15  3]
 [15 15 15 15]
 [10  6 10  5]
 [15 13  6 15]
 [ 2 11 15 11]], 

=11 

=16 

=12 b7 c7

[debug] move action_id=64, action=((1, 1), (1, 2)), 
[debug] current_player=0 (B), 
[debug] board[(1, 1)]=14, board[(1, 2)]=6, 
[debug] board state:
[[14  5  1  2]
 [12 14  6 13]
 [14 15  3 15]
 [ 8  6 15  3]
 [15 15 15 15]
 [10  6 10  5]
 [15 13  6 15]
 [ 2 11 15 11]], 

=10 

=16 

[debug] move action_id=99, action=((2, 1), (2, 1)), 
[debug] current_player=1 (R), 
[debug] board[(2, 1)]=9, board[(2, 1)]=9, 
[debug] board state:
[[14  5  1  2]
 [12 14  6 13]
 [14  9  3 15]
 [ 8  6 15  3]
 [15 15 15 15]
 [10  6 10  5]
 [15 13  6 15]
 [ 2 11 15 11]], 

=11 

=16 

=12 b8 b7

[debug] move action_id=56, action=((0, 1), (1, 1)), 
[debug] current_player=0 (B), 
[debug] board[(0, 1)]=14, board[(1, 1)]=5, 
[debug] board state:
[[14 14  1  2]
 [12  5  6 13]
 [14  9  3 15]
 [ 8  6 15  3]
 [15 15 15 15]
 [10  6 10  5]
 [15 13  6 15]
 [ 2 11 15 11]], 

=10 

=16 

[debug] move action_id=176, action=((4, 0), (4, 0)), 
[debug] current_player=1 (R), 
[debug] board[(4, 0)]=9, board[(4, 0)]=9, 
[debug] board state:
[[14 14  1  2]
 [12  5  6 13]
 [14  9  3 15]
 [ 8  6 15  3]
 [ 9 15 15 15]
 [10  6 10  5]
 [15 13  6 15]
 [ 2 11 15 11]], 

=11 

=16 

=12 b7 b8

[debug] move action_id=12, action=((1, 1), (0, 1)), 
[debug] current_player=0 (B), 
[debug] board[(1, 1)]=14, board[(0, 1)]=5, 
[debug] board state:
[[14  5  1  2]
 [12 14  6 13]
 [14  9  3 15]
 [ 8  6 15  3]
 [ 9 15 15 15]
 [10  6 10  5]
 [15 13  6 15]
 [ 2 11 15 11]], 

=10 

=16 

[debug] move action_id=154, action=((3, 2), (3, 2)), 
[debug] current_player=1 (R), 
[debug] board[(3, 2)]=1, board[(3, 2)]=1, 
[debug] board state:
[[14  5  1  2]
 [12 14  6 13]
 [14  9  3 15]
 [ 8  6  1  3]
 [ 9 15 15 15]
 [10  6 10  5]
 [15 13  6 15]
 [ 2 11 15 11]], 

=11 

=16 

=12 b8 a8

[debug] move action_id=19, action=((0, 1), (0, 0)), 
[debug] current_player=0 (B), 
[debug] board[(0, 1)]=14, board[(0, 0)]=5, 
[debug] board state:
[[ 5 14  1  2]
 [12 14  6 13]
 [14  9  3 15]
 [ 8  6  1  3]
 [ 9 15 15 15]
 [10  6 10  5]
 [15 13  6 15]
 [ 2 11 15 11]], 

=10 

=16 

[debug] move action_id=198, action=((4, 2), (4, 2)), 
[debug] current_player=1 (R), 
[debug] board[(4, 2)]=7, board[(4, 2)]=7, 
[debug] board state:
[[ 5 14  1  2]
 [12 14  6 13]
 [14  9  3 15]
 [ 8  6  1  3]
 [ 9 15  7 15]
 [10  6 10  5]
 [15 13  6 15]
 [ 2 11 15 11]], 

=11 

=16 

=12 a8 b8

[debug] move action_id=8, action=((0, 0), (0, 1)), 
[debug] current_player=0 (B), 
[debug] board[(0, 0)]=14, board[(0, 1)]=5, 
[debug] board state:
[[14  5  1  2]
 [12 14  6 13]
 [14  9  3 15]
 [ 8  6  1  3]
 [ 9 15  7 15]
 [10  6 10  5]
 [15 13  6 15]
 [ 2 11 15 11]], 

=10 

=16 

[debug] move action_id=330, action=((7, 2), (7, 2)), 
[debug] current_player=1 (R), 
[debug] board[(7, 2)]=13, board[(7, 2)]=13, 
[debug] board state:
[[14  5  1  2]
 [12 14  6 13]
 [14  9  3 15]
 [ 8  6  1  3]
 [ 9 15  7 15]
 [10  6 10  5]
 [15 13  6 15]
 [ 2 11 13 11]], 

=11 

=16 

=12 b8 a8

[debug] move action_id=19, action=((0, 1), (0, 0)), 
[debug] current_player=0 (B), 
[debug] board[(0, 1)]=14, board[(0, 0)]=5, 
[debug] board state:
[[ 5 14  1  2]
 [12 14  6 13]
 [14  9  3 15]
 [ 8  6  1  3]
 [ 9 15  7 15]
 [10  6 10  5]
 [15 13  6 15]
 [ 2 11 13 11]], 

=10 

=16 

[debug] move action_id=297, action=((6, 3), (6, 3)), 
[debug] current_player=1 (R), 
[debug] board[(6, 3)]=12, board[(6, 3)]=12, 
[debug] board state:
[[ 5 14  1  2]
 [12 14  6 13]
 [14  9  3 15]
 [ 8  6  1  3]
 [ 9 15  7 15]
 [10  6 10  5]
 [15 13  6 12]
 [ 2 11 13 11]], 

=11 

=16 

=12 c8 b8

[debug] move action_id=31, action=((0, 2), (0, 1)), 
[debug] current_player=0 (B), 
[debug] board[(0, 2)]=14, board[(0, 1)]=1, 
[debug] board state:
[[ 5  1 14  2]
 [12 14  6 13]
 [14  9  3 15]
 [ 8  6  1  3]
 [ 9 15  7 15]
 [10  6 10  5]
 [15 13  6 12]
 [ 2 11 13 11]], 

=10 

=16 

[debug] move action_id=209, action=((4, 3), (4, 3)), 
[debug] current_player=1 (R), 
[debug] board[(4, 3)]=4, board[(4, 3)]=4, 
[debug] board state:
[[ 5  1 14  2]
 [12 14  6 13]
 [14  9  3 15]
 [ 8  6  1  3]
 [ 9 15  7  4]
 [10  6 10  5]
 [15 13  6 12]
 [ 2 11 13 11]], 

=11 

=16 

=12 b8 c8

[debug] move action_id=20, action=((0, 1), (0, 2)), 
[debug] current_player=0 (B), 
[debug] board[(0, 1)]=14, board[(0, 2)]=1, 
[debug] board state:
[[ 5 14  1  2]
 [12 14  6 13]
 [14  9  3 15]
 [ 8  6  1  3]
 [ 9 15  7  4]
 [10  6 10  5]
 [15 13  6 12]
 [ 2 11 13 11]], 

=10 

=16 

[debug] move action_id=187, action=((4, 1), (4, 1)), 
[debug] current_player=1 (R), 
[debug] board[(4, 1)]=0, board[(4, 1)]=0, 
[debug] board state:
[[ 5 14  1  2]
 [12 14  6 13]
 [14  9  3 15]
 [ 8  6  1  3]
 [ 9  0  7  4]
 [10  6 10  5]
 [15 13  6 12]
 [ 2 11 13 11]], 

=11 

=16 

=12 a8 b8

[debug] move action_id=8, action=((0, 0), (0, 1)), 
[debug] current_player=0 (B), 
[debug] board[(0, 0)]=14, board[(0, 1)]=5, 
[debug] board state:
[[14  5  1  2]
 [12 14  6 13]
 [14  9  3 15]
 [ 8  6  1  3]
