INITIAL
* 5:53pm Feb 22, 2026
* a1_stmu vs a0_mu
* 1 2 2 2 2 2 5 1 2 2 2 2 2 5
* X X X X
* X X X X
* X X X X
* X X X X
* X X X X
* X X X X
* X X X X
* X X X X
* first 0
* time 900
* 1. a8(C) b1(M)
* 2. c8(K) c7(m)
* 3. a7(C) d1(p)
* 4. b8(r) a6(g)
* 5. c8-b8 b5(P)
* 6. a7-c7 a4(c)
* 7. b8-c8 d6(n)
* 8. a8-b8 d4(p)
* 9. b6(N) c2(P)
* 10. d8(G) c5(n)
* 11. b7(P) a6-a7
* 12. b8-a8 a3(M)
* 13. a8-b8 d7(p)
* 14. c7-a7 b2(c)
* 15. b8-a8 c6(P)
* 16. b7-b8 a1(N)
* 17. a7-b7 b3(p)
* 18. a8-a7 a5(g)
* 19. a7-a8 d2(R)
* 20. b7-a7 c4(p)
* 21. a7-b7 c3(r)
* 22. a8-a7 a5-b5
* 23. a7-a8 d5(R)
* 24. b7-a7 d3(m)
* 25. a7-b7 c5-c6
* 26. b7-a7 c6-c5
* 27. a7-b7 c5-c6
* 28. b7-c7 c6-c5
* 29. b8-b7 c5-c6
* 30. a8-b8 c6-c5
* 31. b8-a8 c5-c6
* 32. a8-b8 c6-c5
* 33. b8-a8 c5-c6
* 34. a8-b8 c6-c5
* 35. b8-a8
* PositionRepetitionDraw,3,4 a1_stmu Draw 0.500000,0.500000
* Comment 0 0
0. 1771754000130
1. 1771754000130
2. 1771754002167
3. 1771754004029
4. 1771754005873
5. 1771754007735
6. 1771754009530
7. 1771754011392
8. 1771754013287
9. 1771754015148
10. 1771754016994
11. 1771754018855
12. 1771754020650
13. 1771754022511
14. 1771754024306
15. 1771754026167
16. 1771754028061
17. 1771754029924
18. 1771754031768
19. 1771754033631
20. 1771754035475
21. 1771754037286
22. 1771754039031
23. 1771754040792
24. 1771754042536
25. 1771754044299
26. 1771754046193
27. 1771754048057
28. 1771754049951
29. 1771754051814
30. 1771754053707
31. 1771754055621
32. 1771754057514
33. 1771754059429
34. 1771754061322
35. 1771754063186
36. 1771754065081
37. 1771754066992
38. 1771754068839
39. 1771754070747
40. 1771754072599
41. 1771754074504
42. 1771754076356
43. 1771754078261
44. 1771754080114
45. 1771754082017
46. 1771754083870
47. 1771754085772
48. 1771754087626
49. 1771754089528
50. 1771754091382
51. 1771754093284
52. 1771754095138
53. 1771754097040
54. 1771754098896
55. 1771754100798
56. 1771754102653
57. 1771754104558
58. 1771754106409
59. 1771754108313
60. 1771754110166
61. 1771754112070
62. 1771754113923
63. 1771754115826
64. 1771754117680
65. 1771754119580
66. 1771754121438
67. 1771754123336
68. 1771754125197
69. 1771754127092

# 10 12 46 48 82 84 118 120 154 156 190 192 226 228 262 264 298 300 334 336 370 372 406 408 442 444 478 480 514 516 550 552 586 588 622 624 658 660 694 696 730 732 766 768 802 804 838 840 874 876 910 912 946 948 982 984 1018 1020 1054 1056 1090 1092 1126 1128 1162 1164 1198 1200 1234 1236 #
LightZero MGTP Interface Ready
=1 LightZero_DarkChess

=2 1.0.0

=7 

=15 

=14 

=12 a8 a8

[debug] move action_id=0, action=((0, 0), (0, 0)), 
[debug] current_player=1 (B), 
[debug] board[(0, 0)]=5, board[(0, 0)]=5, 
[debug] board state:
[[ 5 15 15 15]
 [15 15 15 15]
 [15 15 15 15]
 [15 15 15 15]
 [15 15 15 15]
 [15 15 15 15]
 [15 15 15 15]
 [15 15 15 15]], 

=11 

=16 

[debug] move action_id=319, action=((7, 1), (7, 1)), 
[debug] current_player=0 (R), 
[debug] board[(7, 1)]=2, board[(7, 1)]=2, 
[debug] board state:
[[ 5 15 15 15]
 [15 15 15 15]
 [15 15 15 15]
 [15 15 15 15]
 [15 15 15 15]
 [15 15 15 15]
 [15 15 15 15]
 [15  2 15 15]], 

=11 

=16 

=12 c8 c8

[debug] move action_id=22, action=((0, 2), (0, 2)), 
[debug] current_player=1 (B), 
[debug] board[(0, 2)]=0, board[(0, 2)]=0, 
[debug] board state:
[[ 5 15  0 15]
 [15 15 15 15]
 [15 15 15 15]
 [15 15 15 15]
 [15 15 15 15]
 [15 15 15 15]
 [15 15 15 15]
 [15  2 15 15]], 

=11 

=16 

[debug] move action_id=66, action=((1, 2), (1, 2)), 
[debug] current_player=0 (R), 
[debug] board[(1, 2)]=9, board[(1, 2)]=9, 
[debug] board state:
[[ 5 15  0 15]
 [15 15  9 15]
 [15 15 15 15]
 [15 15 15 15]
 [15 15 15 15]
 [15 15 15 15]
 [15 15 15 15]
 [15  2 15 15]], 

=11 

=16 

=12 a7 a7

[debug] move action_id=44, action=((1, 0), (1, 0)), 
[debug] current_player=1 (B), 
[debug] board[(1, 0)]=5, board[(1, 0)]=5, 
[debug] board state:
[[ 5 15  0 15]
 [ 5 15  9 15]
 [15 15 15 15]
 [15 15 15 15]
 [15 15 15 15]
 [15 15 15 15]
 [15 15 15 15]
 [15  2 15 15]], 

=11 

=16 

[debug] move action_id=341, action=((7, 3), (7, 3)), 
[debug] current_player=0 (R), 
[debug] board[(7, 3)]=13, board[(7, 3)]=13, 
[debug] board state:
[[ 5 15  0 15]
 [ 5 15  9 15]
 [15 15 15 15]
 [15 15 15 15]
 [15 15 15 15]
 [15 15 15 15]
 [15 15 15 15]
 [15  2 15 13]], 

=11 

=16 

=12 b8 b8

[debug] move action_id=11, action=((0, 1), (0, 1)), 
[debug] current_player=1 (B), 
[debug] board[(0, 1)]=10, board[(0, 1)]=10, 
[debug] board state:
[[ 5 10  0 15]
 [ 5 15  9 15]
 [15 15 15 15]
 [15 15 15 15]
 [15 15 15 15]
 [15 15 15 15]
 [15 15 15 15]
 [15  2 15 13]], 

=11 

=16 

[debug] move action_id=88, action=((2, 0), (2, 0)), 
[debug] current_player=0 (R), 
[debug] board[(2, 0)]=8, board[(2, 0)]=8, 
[debug] board state:
[[ 5 10  0 15]
 [ 5 15  9 15]
 [ 8 15 15 15]
 [15 15 15 15]
 [15 15 15 15]
 [15 15 15 15]
 [15 15 15 15]
 [15  2 15 13]], 

=11 

=16 

=12 c8 b8

[debug] move action_id=31, action=((0, 2), (0, 1)), 
[debug] current_player=1 (B), 
[debug] board[(0, 2)]=14, board[(0, 1)]=0, 
[debug] board state:
[[ 5  0 14 15]
 [ 5 15  9 15]
 [ 8 15 15 15]
 [15 15 15 15]
 [15 15 15 15]
 [15 15 15 15]
 [15 15 15 15]
 [15  2 15 13]], 

=10 

=16 

[debug] move action_id=143, action=((3, 1), (3, 1)), 
[debug] current_player=0 (R), 
[debug] board[(3, 1)]=6, board[(3, 1)]=6, 
[debug] board state:
[[ 5  0 14 15]
 [ 5 15  9 15]
 [ 8 15 15 15]
 [15  6 15 15]
 [15 15 15 15]
 [15 15 15 15]
 [15 15 15 15]
 [15  2 15 13]], 

=11 

=16 

=12 a7 c7

[debug] move action_id=53, action=((1, 0), (1, 2)), 
[debug] current_player=1 (B), 
[debug] board[(1, 0)]=14, board[(1, 2)]=5, 
[debug] board state:
[[ 5  0 14 15]
 [14 15  5 15]
 [ 8 15 15 15]
 [15  6 15 15]
 [15 15 15 15]
 [15 15 15 15]
 [15 15 15 15]
 [15  2 15 13]], 

=10 

=16 

[debug] move action_id=176, action=((4, 0), (4, 0)), 
[debug] current_player=0 (R), 
[debug] board[(4, 0)]=12, board[(4, 0)]=12, 
[debug] board state:
[[ 5  0 14 15]
 [14 15  5 15]
 [ 8 15 15 15]
 [15  6 15 15]
 [12 15 15 15]
 [15 15 15 15]
 [15 15 15 15]
 [15  2 15 13]], 

=11 

=16 

=12 b8 c8

[debug] move action_id=20, action=((0, 1), (0, 2)), 
[debug] current_player=1 (B), 
[debug] board[(0, 1)]=14, board[(0, 2)]=0, 
[debug] board state:
[[ 5 14  0 15]
 [14 15  5 15]
 [ 8 15 15 15]
 [15  6 15 15]
 [12 15 15 15]
 [15 15 15 15]
 [15 15 15 15]
 [15  2 15 13]], 

=10 

=16 

[debug] move action_id=121, action=((2, 3), (2, 3)), 
[debug] current_player=0 (R), 
[debug] board[(2, 3)]=11, board[(2, 3)]=11, 
[debug] board state:
[[ 5 14  0 15]
 [14 15  5 15]
 [ 8 15 15 11]
 [15  6 15 15]
 [12 15 15 15]
 [15 15 15 15]
 [15 15 15 15]
 [15  2 15 13]], 

=11 

=16 

=12 a8 b8

[debug] move action_id=8, action=((0, 0), (0, 1)), 
[debug] current_player=1 (B), 
[debug] board[(0, 0)]=14, board[(0, 1)]=5, 
[debug] board state:
[[14  5  0 15]
 [14 15  5 15]
 [ 8 15 15 11]
 [15  6 15 15]
 [12 15 15 15]
 [15 15 15 15]
 [15 15 15 15]
 [15  2 15 13]], 

=10 

=16 

[debug] move action_id=209, action=((4, 3), (4, 3)), 
[debug] current_player=0 (R), 
[debug] board[(4, 3)]=13, board[(4, 3)]=13, 
[debug] board state:
[[14  5  0 15]
 [14 15  5 15]
 [ 8 15 15 11]
 [15  6 15 15]
 [12 15 15 13]
 [15 15 15 15]
 [15 15 15 15]
 [15  2 15 13]], 

=11 

=16 

=12 b6 b6

[debug] move action_id=99, action=((2, 1), (2, 1)), 
[debug] current_player=1 (B), 
[debug] board[(2, 1)]=4, board[(2, 1)]=4, 
[debug] board state:
[[14  5  0 15]
 [14 15  5 15]
 [ 8  4 15 11]
 [15  6 15 15]
 [12 15 15 13]
 [15 15 15 15]
 [15 15 15 15]
 [15  2 15 13]], 

=11 

=16 

[debug] move action_id=286, action=((6, 2), (6, 2)), 
[debug] current_player=0 (R), 
[debug] board[(6, 2)]=6, board[(6, 2)]=6, 
[debug] board state:
[[14  5  0 15]
 [14 15  5 15]
 [ 8  4 15 11]
 [15  6 15 15]
 [12 15 15 13]
 [15 15 15 15]
 [15 15  6 15]
 [15  2 15 13]], 

=11 

=16 

=12 d8 d8

[debug] move action_id=33, action=((0, 3), (0, 3)), 
[debug] current_player=1 (B), 
[debug] board[(0, 3)]=1, board[(0, 3)]=1, 
[debug] board state:
[[14  5  0  1]
 [14 15  5 15]
 [ 8  4 15 11]
 [15  6 15 15]
 [12 15 15 13]
 [15 15 15 15]
 [15 15  6 15]
 [15  2 15 13]], 

=11 

=16 

[debug] move action_id=154, action=((3, 2), (3, 2)), 
[debug] current_player=0 (R), 
[debug] board[(3, 2)]=11, board[(3, 2)]=11, 
[debug] board state:
[[14  5  0  1]
 [14 15  5 15]
 [ 8  4 15 11]
 [15  6 11 15]
 [12 15 15 13]
 [15 15 15 15]
 [15 15  6 15]
 [15  2 15 13]], 

=11 

=16 

=12 b7 b7

[debug] move action_id=55, action=((1, 1), (1, 1)), 
[debug] current_player=1 (B), 
[debug] board[(1, 1)]=6, board[(1, 1)]=6, 
[debug] board state:
[[14  5  0  1]
 [14  6  5 15]
 [ 8  4 15 11]
 [15  6 11 15]
 [12 15 15 13]
 [15 15 15 15]
 [15 15  6 15]
 [15  2 15 13]], 

=11 

=16 

[debug] move action_id=46, action=((2, 0), (1, 0)), 
[debug] current_player=0 (R), 
[debug] board[(2, 0)]=14, board[(1, 0)]=8, 
[debug] board state:
[[14  5  0  1]
 [ 8  6  5 15]
 [14  4 15 11]
 [15  6 11 15]
 [12 15 15 13]
 [15 15 15 15]
 [15 15  6 15]
 [15  2 15 13]], 

=10 

=16 

=12 b8 a8

[debug] move action_id=19, action=((0, 1), (0, 0)), 
[debug] current_player=1 (B), 
[debug] board[(0, 1)]=14, board[(0, 0)]=5, 
[debug] board state:
[[ 5 14  0  1]
 [ 8  6  5 15]
 [14  4 15 11]
 [15  6 11 15]
 [12 15 15 13]
 [15 15 15 15]
 [15 15  6 15]
 [15  2 15 13]], 

=10 

=16 

[debug] move action_id=220, action=((5, 0), (5, 0)), 
[debug] current_player=0 (R), 
[debug] board[(5, 0)]=2, board[(5, 0)]=2, 
[debug] board state:
[[ 5 14  0  1]
 [ 8  6  5 15]
 [14  4 15 11]
 [15  6 11 15]
 [12 15 15 13]
 [ 2 15 15 15]
 [15 15  6 15]
 [15  2 15 13]], 

=11 

=16 

=12 a8 b8

[debug] move action_id=8, action=((0, 0), (0, 1)), 
[debug] current_player=1 (B), 
[debug] board[(0, 0)]=14, board[(0, 1)]=5, 
[debug] board state:
[[14  5  0  1]
 [ 8  6  5 15]
 [14  4 15 11]
 [15  6 11 15]
 [12 15 15 13]
 [ 2 15 15 15]
 [15 15  6 15]
 [15  2 15 13]], 

=10 

=16 

[debug] move action_id=77, action=((1, 3), (1, 3)), 
[debug] current_player=0 (R), 
[debug] board[(1, 3)]=13, board[(1, 3)]=13, 
[debug] board state:
[[14  5  0  1]
 [ 8  6  5 13]
 [14  4 15 11]
 [15  6 11 15]
 [12 15 15 13]
 [ 2 15 15 15]
 [15 15  6 15]
 [15  2 15 13]], 

=11 

=16 

=12 c7 a7

[debug] move action_id=74, action=((1, 2), (1, 0)), 
[debug] current_player=1 (B), 
[debug] board[(1, 2)]=14, board[(1, 0)]=5, 
[debug] board state:
[[14  5  0  1]
 [ 5  6 14 13]
 [14  4 15 11]
 [15  6 11 15]
 [12 15 15 13]
 [ 2 15 15 15]
 [15 15  6 15]
 [15  2 15 13]], 

=10 

=16 

[debug] move action_id=275, action=((6, 1), (6, 1)), 
[debug] current_player=0 (R), 
[debug] board[(6, 1)]=12, board[(6, 1)]=12, 
[debug] board state:
[[14  5  0  1]
 [ 5  6 14 13]
 [14  4 15 11]
 [15  6 11 15]
 [12 15 15 13]
 [ 2 15 15 15]
 [15 12  6 15]
 [15  2 15 13]], 

=11 

=16 

=12 b8 a8

[debug] move action_id=19, action=((0, 1), (0, 0)), 
[debug] current_player=1 (B), 
[debug] board[(0, 1)]=14, board[(0, 0)]=5, 
[debug] board state:
[[ 5 14  0  1]
 [ 5  6 14 13]
 [14  4 15 11]
 [15  6 11 15]
 [12 15 15 13]
 [ 2 15 15 15]
 [15 12  6 15]
 [15  2 15 13]], 

=10 

=16 

[debug] move action_id=110, action=((2, 2), (2, 2)), 
[debug] current_player=0 (R), 
[debug] board[(2, 2)]=6, board[(2, 2)]=6, 
[debug] board state:
[[ 5 14  0  1]
 [ 5  6 14 13]
 [14  4  6 11]
 [15  6 11 15]
 [12 15 15 13]
 [ 2 15 15 15]
 [15 12  6 15]
 [15  2 15 13]], 

=11 

=16 

=12 b7 b8

[debug] move action_id=12, action=((1, 1), (0, 1)), 
[debug] current_player=1 (B), 
[debug] board[(1, 1)]=14, board[(0, 1)]=6, 
[debug] board state:
[[ 5  6  0  1]
 [ 5 14 14 13]
 [14  4  6 11]
 [15  6 11 15]
 [12 15 15 13]
 [ 2 15 15 15]
 [15 12  6 15]
 [15  2 15 13]], 

=10 

=16 

[debug] move action_id=308, action=((7, 0), (7, 0)), 
[debug] current_player=0 (R), 
[debug] board[(7, 0)]=4, board[(7, 0)]=4, 
[debug] board state:
[[ 5  6  0  1]
 [ 5 14 14 13]
 [14  4  6 11]
 [15  6 11 15]
 [12 15 15 13]
 [ 2 15 15 15]
 [15 12  6 15]
 [ 4  2 15 13]], 

=11 

=16 

=12 a7 b7

[debug] move action_id=52, action=((1, 0), (1, 1)), 
[debug] current_player=1 (B), 
[debug] board[(1, 0)]=14, board[(1, 1)]=5, 
[debug] board state:
[[ 5  6  0  1]
 [14  5 14 13]
 [14  4  6 11]
 [15  6 11 15]
 [12 15 15 13]
 [ 2 15 15 15]
 [15 12  6 15]
 [ 4  2 15 13]], 

=10 

=16 

[debug] move action_id=231, action=((5, 1), (5, 1)), 
[debug] current_player=0 (R), 
[debug] board[(5, 1)]=13, board[(5, 1)]=13, 
[debug] board state:
[[ 5  6  0  1]
 [14  5 14 13]
 [14  4  6 11]
 [15  6 11 15]
 [12 15 15 13]
 [ 2 13 15 15]
 [15 12  6 15]
 [ 4  2 15 13]], 

=11 

=16 

=12 a8 a7

[debug] move action_id=45, action=((0, 0), (1, 0)), 
[debug] current_player=1 (B), 
[debug] board[(0, 0)]=14, board[(1, 0)]=5, 
[debug] board state:
[[14  6  0  1]
 [ 5  5 14 13]
 [14  4  6 11]
 [15  6 11 15]
 [12 15 15 13]
 [ 2 13 15 15]
 [15 12  6 15]
 [ 4  2 15 13]], 

=10 

=16 

[debug] move action_id=132, action=((3, 0), (3, 0)), 
[debug] current_player=0 (R), 
[debug] board[(3, 0)]=8, board[(3, 0)]=8, 
[debug] board state:
[[14  6  0  1]
 [ 5  5 14 13]
 [14  4  6 11]
 [ 8  6 11 15]
 [12 15 15 13]
 [ 2 13 15 15]
 [15 12  6 15]
 [ 4  2 15 13]], 

=11 

=16 

=12 a7 a8

[debug] move action_id=1, action=((1, 0), (0, 0)), 
[debug] current_player=1 (B), 
[debug] board[(1, 0)]=14, board[(0, 0)]=5, 
[debug] board state:
[[ 5  6  0  1]
 [14  5 14 13]
 [14  4  6 11]
 [ 8  6 11 15]
 [12 15 15 13]
 [ 2 13 15 15]
 [15 12  6 15]
 [ 4  2 15 13]], 

=10 

=16 

[debug] move action_id=297, action=((6, 3), (6, 3)), 
[debug] current_player=0 (R), 
[debug] board[(6, 3)]=3, board[(6, 3)]=3, 
[debug] board state:
[[ 5  6  0  1]
 [14  5 14 13]
 [14  4  6 11]
 [ 8  6 11 15]
 [12 15 15 13]
 [ 2 13 15 15]
 [15 12  6  3]
 [ 4  2 15 13]], 

=11 

=16 

=12 b7 a7

[debug] move action_id=63, action=((1, 1), (1, 0)), 
[debug] current_player=1 (B), 
[debug] board[(1, 1)]=14, board[(1, 0)]=5, 
[debug] board state:
[[ 5  6  0  1]
 [ 5 14 14 13]
 [14  4  6 11]
 [ 8  6 11 15]
 [12 15 15 13]
 [ 2 13 15 15]
 [15 12  6  3]
 [ 4  2 15 13]], 

=10 

=16 

[debug] move action_id=198, action=((4, 2), (4, 2)), 
[debug] current_player=0 (R), 
[debug] board[(4, 2)]=13, board[(4, 2)]=13, 
[debug] board state:
[[ 5  6  0  1]
 [ 5 14 14 13]
 [14  4  6 11]
 [ 8  6 11 15]
 [12 15 13 13]
 [ 2 13 15 15]
 [15 12  6  3]
 [ 4  2 15 13]], 

=11 

=16 

=12 a7 b7

[debug] move action_id=52, action=((1, 0), (1, 1)), 
[debug] current_player=1 (B), 
[debug] board[(1, 0)]=14, board[(1, 1)]=5, 
[debug] board state:
[[ 5  6  0  1]
 [14  5 14 13]
 [14  4  6 11]
 [ 8  6 11 15]
 [12 15 13 13]
 [ 2 13 15 15]
 [15 12  6  3]
 [ 4  2 15 13]], 

=10 

=16 

[debug] move action_id=242, action=((5, 2), (5, 2)), 
[debug] current_player=0 (R), 
[debug] board[(5, 2)]=10, board[(5, 2)]=10, 
[debug] board state:
[[ 5  6  0  1]
 [14  5 14 13]
 [14  4  6 11]
 [ 8  6 11 15]
 [12 15 13 13]
 [ 2 13 10 15]
 [15 12  6  3]
 [ 4  2 15 13]], 

=11 

=16 

=12 a8 a7

[debug] move action_id=45, action=((0, 0), (1, 0)), 
[debug] current_player=1 (B), 
[debug] board[(0, 0)]=14, board[(1, 0)]=5, 
[debug] board state:
[[14  6  0  1]
 [ 5  5 14 13]
 [14  4  6 11]
 [ 8  6 11 15]
 [12 15 13 13]
 [ 2 13 10 15]
 [15 12  6  3]
 [ 4  2 15 13]], 

=10 

=16 

[debug] move action_id=140, action=((3, 0), (3, 1)), 
[debug] current_player=0 (R), 
[debug] board[(3, 0)]=14, board[(3, 1)]=8, 
[debug] board state:
[[14  6  0  1]
 [ 5  5 14 13]
 [14  4  6 11]
 [14  8 11 15]
 [12 15 13 13]
 [ 2 13 10 15]
 [15 12  6  3]
 [ 4  2 15 13]], 

=10 

=16 

=12 a7 a8

[debug] move action_id=1, action=((1, 0), (0, 0)), 
[debug] current_player=1 (B), 
[debug] board[(1, 0)]=14, board[(0, 0)]=5, 
[debug] board state:
[[ 5  6  0  1]
 [14  5 14 13]
 [14  4  6 11]
 [14  8 11 15]
 [12 15 13 13]
 [ 2 13 10 15]
 [15 12  6  3]
 [ 4  2 15 13]], 

=10 

=16 

[debug] move action_id=165, action=((3, 3), (3, 3)), 
[debug] current_player=0 (R), 
[debug] board[(3, 3)]=3, board[(3, 3)]=3, 
[debug] board state:
[[ 5  6  0  1]
 [14  5 14 13]
 [14  4  6 11]
 [14  8 11  3]
 [12 15 13 13]
 [ 2 13 10 15]
 [15 12  6  3]
 [ 4  2 15 13]], 

=11 

=16 

=12 b7 a7

[debug] move action_id=63, action=((1, 1), (1, 0)), 
[debug] current_player=1 (B), 
[debug] board[(1, 1)]=14, board[(1, 0)]=5, 
[debug] board state:
[[ 5  6  0  1]
 [ 5 14 14 13]
 [14  4  6 11]
 [14  8 11  3]
 [12 15 13 13]
 [ 2 13 10 15]
 [15 12  6  3]
 [ 4  2 15 13]], 

=10 

=16 

[debug] move action_id=253, action=((5, 3), (5, 3)), 
[debug] current_player=0 (R), 
[debug] board[(5, 3)]=9, board[(5, 3)]=9, 
[debug] board state:
[[ 5  6  0  1]
 [ 5 14 14 13]
 [14  4  6 11]
 [14  8 11  3]
 [12 15 13 13]
 [ 2 13 10  9]
 [15 12  6  3]
 [ 4  2 15 13]], 

=11 

=16 

=12 a7 b7

[debug] move action_id=52, action=((1, 0), (1, 1)), 
[debug] current_player=1 (B), 
[debug] board[(1, 0)]=14, board[(1, 1)]=5, 
[debug] board state:
[[ 5  6  0  1]
 [14  5 14 13]
 [14  4  6 11]
 [14  8 11  3]
 [12 15 13 13]
 [ 2 13 10  9]
 [15 12  6  3]
 [ 4  2 15 13]], 

=10 

=16 

[debug] move action_id=113, action=((3, 2), (2, 2)), 
[debug] current_player=0 (R), 
[debug] board[(3, 2)]=14, board[(2, 2)]=11, 
[debug] board state:
[[ 5  6  0  1]
 [14  5 14 13]
 [14  4 11 11]
 [14  8 14  3]
 [12 15 13 13]
 [ 2 13 10  9]
 [15 12  6  3]
 [ 4  2 15 13]], 

=10 

=16 

=12 b7 a7

[debug] move action_id=63, action=((1, 1), (1, 0)), 
[debug] current_player=1 (B), 
[debug] board[(1, 1)]=14, board[(1, 0)]=5, 
[debug] board state:
[[ 5  6  0  1]
 [ 5 14 14 13]
 [14  4 11 11]
 [14  8 14  3]
 [12 15 13 13]
 [ 2 13 10  9]
 [15 12  6  3]
 [ 4  2 15 13]], 

=10 

=16 

[debug] move action_id=157, action=((2, 2), (3, 2)), 
[debug] current_player=0 (R), 
[debug] board[(2, 2)]=14, board[(3, 2)]=11, 
[debug] board state:
[[ 5  6  0  1]
 [ 5 14 14 13]
 [14  4 14 11]
 [14  8 11  3]
 [12 15 13 13]
 [ 2 13 10  9]
 [15 12  6  3]
 [ 4  2 15 13]], 

=10 

=16 

=12 a7 b7

[debug] move action_id=52, action=((1, 0), (1, 1)), 
[debug] current_player=1 (B), 
[debug] board[(1, 0)]=14, board[(1, 1)]=5, 
[debug] board state:
[[ 5  6  0  1]
 [14  5 14 13]
 [14  4 14 11]
 [14  8 11  3]
 [12 15 13 13]
 [ 2 13 10  9]
 [15 12  6  3]
 [ 4  2 15 13]], 

=10 

=16 

[debug] move action_id=113, action=((3, 2), (2, 2)), 
[debug] current_player=0 (R), 
[debug] board[(3, 2)]=14, board[(2, 2)]=11, 
[debug] board state:
[[ 5  6  0  1]
 [14  5 14 13]
 [14  4 11 11]
 [14  8 14  3]
 [12 15 13 13]
 [ 2 13 10  9]
 [15 12  6  3]
 [ 4  2 15 13]], 

=10 

=16 

=12 b7 c7

[debug] move action_id=64, action=((1, 1), (1, 2)), 
[debug] current_player=1 (B), 
[debug] board[(1, 1)]=14, board[(1, 2)]=5, 
[debug] board state:
[[ 5  6  0  1]
 [14 14  5 13]
 [14  4 11 11]
 [14  8 14  3]
 [12 15 13 13]
 [ 2 13 10  9]
 [15 12  6  3]
 [ 4  2 15 13]], 

=10 

=16 

[debug] move action_id=157, action=((2, 2), (3, 2)), 
[debug] current_player=0 (R), 
[debug] board[(2, 2)]=14, board[(3, 2)]=11, 
[debug] board state:
[[ 5  6  0  1]
 [14 14  5 13]
 [14  4 14 11]
 [14  8 11  3]
 [12 15 13 13]
 [ 2 13 10  9]
 [15 12  6  3]
 [ 4  2 15 13]], 

=10 

=16 

=12 b8 b7

[debug] move action_id=56, action=((0, 1), (1, 1)), 
[debug] current_player=1 (B), 
[debug] board[(0, 1)]=14, board[(1, 1)]=6, 
[debug] board state:
[[ 5 14  0  1]
 [14  6  5 13]
 [14  4 14 11]
 [14  8 11  3]
 [12 15 13 13]
 [ 2 13 10  9]
 [15 12  6  3]
 [ 4  2 15 13]], 

=10 

=16 

[debug] move action_id=113, action=((3, 2), (2, 2)), 
[debug] current_player=0 (R), 
[debug] board[(3, 2)]=14, board[(2, 2)]=11, 
[debug] board state:
[[ 5 14  0  1]
 [14  6  5 13]
 [14  4 11 11]
 [14  8 14  3]
 [12 15 13 13]
 [ 2 13 10  9]
 [15 12  6  3]
 [ 4  2 15 13]], 

=10 

=16 

=12 a8 b8

[debug] move action_id=8, action=((0, 0), (0, 1)), 
[debug] current_player=1 (B), 
[debug] board[(0, 0)]=14, board[(0, 1)]=5, 
[debug] board state:
[[14  5  0  1]
 [14  6  5 13]
 [14  4 11 11]
 [14  8 14  3]
 [12 15 13 13]
 [ 2 13 10  9]
 [15 12  6  3]
 [ 4  2 15 13]], 

=10 

=16 

[debug] move action_id=157, action=((2, 2), (3, 2)), 
[debug] current_player=0 (R), 
[debug] board[(2, 2)]=14, board[(3, 2)]=11, 
[debug] board state:
[[14  5  0  1]
 [14  6  5 13]
 [14  4 14 11]
 [14  8 11  3]
 [12 15 13 13]
 [ 2 13 10  9]
 [15 12  6  3]
 [ 4  2 15 13]], 

=10 

=16 

=12 b8 a8

