INITIAL
* 8:27pm Jun 21, 2024
* a0 vs a1
* 1 2 2 2 2 2 5 1 2 2 2 2 2 5
* X X X X
* X X X X
* X X X X
* X X X X
* X X X X
* X X X X
* X X X X
* X X X X
* first 1
* time 900
* 1. b6(k) d6(m)
* 2. a7(G) d5(C)
* 3. d6-d5 b3(p)
* 4. d5-d6 d8(K)
* 5. d6-d5 a8(P)
* 6. a6(p) b2(p)
* 7. c6(n) a5(c)
* 8. a4(R) c8(M)
* 9. d5-d6
* SocketBroken a0 Wins 1.000000,0.000000
* Comment 0 0
0. 1718972845424
1. 1718972845424
2. 1718972845615
3. 1718972845804
4. 1718972845921
5. 1718972846117
6. 1718972846229
7. 1718972846433
8. 1718972846586
9. 1718972846746
10. 1718972846889
11. 1718972847062
12. 1718972847196
13. 1718972847377
14. 1718972847505
15. 1718972847692
16. 1718972847816
17. 1718972848007
