INITIAL
* 8:7pm Jun 21, 2024
* a0 vs a1
* 1 2 2 2 2 2 5 1 2 2 2 2 2 5
* X X X X
* X X X X
* X X X X
* X X X X
* X X X X
* X X X X
* X X X X
* X X X X
* first 0
* time 900
* 1. b6(C) d6(G)
* 2. a7(G) d5(m)
* 3. d6-d5 b3(K)
* 4. d5-d6 d8(R)
* 5. d6-d5 a8(P)
* 6. a6(g) b2(r)
* 7. c6(p) a5(M)
* 8. a4(m) c8(P)
* 9. d5-d6 a6-a5
* 10. a7-a6 a5-a6
* 11. a1(c) a3(r)
* 12. b3-b2 a4-a5
* 13. d6-c6 a3-b3
* 14. a8-a7 a6-b6
* 15. c1(p) b4(N)
* 16. b2-b3 b6-a6
* 17. c6-b6 a5-a4
* 18. b3-a3 a4-b4
* 19. b6-c6 a6-a7
* 20. a2(M) a7-a8
* 21. a2-b2 b4-b3
* 22. b2-b3 a8-a7
* 23. a3-a4
* SocketBroken a0 Wins 1.000000,0.000000
* Comment 0 0
0. 1718971637255
1. 1718971637255
2. 1718971637409
3. 1718971637516
4. 1718971637664
5. 1718971637786
6. 1718971637918
7. 1718971638043
8. 1718971638174
9. 1718971638297
10. 1718971638429
11. 1718971638553
12. 1718971638686
13. 1718971638811
14. 1718971638942
15. 1718971639064
16. 1718971639150
17. 1718971639323
18. 1718971639459
19. 1718971639580
20. 1718971639717
21. 1718971639835
22. 1718971639970
23. 1718971640093
24. 1718971640230
25. 1718971640347
26. 1718971640484
27. 1718971640601
28. 1718971640740
29. 1718971640855
30. 1718971640996
31. 1718971641110
32. 1718971641250
33. 1718971641369
34. 1718971641505
35. 1718971641624
36. 1718971641762
37. 1718971641879
38. 1718971642018
39. 1718971642137
40. 1718971642274
41. 1718971642392
42. 1718971642527
43. 1718971642646
44. 1718971642782
45. 1718971642901
