INITIAL
* 5:54pm Jun 21, 2024
* a0 vs a1
* 1 2 2 2 2 2 5 1 2 2 2 2 2 5
* X X X X
* X X X X
* X X X X
* X X X X
* X X X X
* X X X X
* X X X X
* X X X X
* first 0
* time 900
* 1. b6(R) d6(M)
* 2. a7(K) d5(m)
* 3. d6-d5 b3(R)
* 4. d5-d6 d8(p)
* 5. d6-d5 a8(c)
* 6. a6(p) b2(r)
* 7. d5-d6 a6-a7
* 8. b7(P) d2(p)
* 9. d6-d5 b2-b3
* 10. b7-a7 b3-b2
* 11. a7-b7 a8-a7
* 12. b6-a6 a7-a8
* 13. d5-d6 b2-b3
* 14. a6-a7 b3-b2
* 15. a7-a8 d1(P)
* 16. a8-a7 b2-b3
* 17. a7-a8 b3-b2
* 18. d1-d2 b2-b3
* 19. b7-b6 c5(P)
* 20. d6-d5 b3-b2
* 21. d5-d6 d3(G)
* 22. b6-a6 c7(g)
* 23. a6-b6 a3(p)
* 24. c5-d5 b5(P)
* 25. b6-b7 c7-b7
* 26. b5-c5 b7-a7
* 27. c5-b5 a3-b3
* 28. a1(r) c6(P)
* 29. d5-c5 a7-b7
* 30. c6-b6 b3-a3
* 31. b6-a6 b4(g)
* 32. a6-b6 b7-a7
* 33. b6-c6 a7-a6
* 34. d2-d1 b4-b3
* 35. d1-d2 a6-a7
* 36. c5-d5 a7-a8
* 37. d5-c5 a8-a7
* 38. d2-d1 a7-a8
* 39. d3-d2 a8-a7
* 40. b5-b4
* SocketBroken a0 Wins 1.000000,0.000000
* Comment 0 0
0. 1718963649199
1. 1718963649199
2. 1718963649402
3. 1718963649559
4. 1718963649710
5. 1718963649866
6. 1718963650017
7. 1718963650174
8. 1718963650326
9. 1718963650482
10. 1718963650635
11. 1718963650792
12. 1718963650945
13. 1718963651099
14. 1718963651255
15. 1718963651407
16. 1718963651563
17. 1718963651717
18. 1718963651871
19. 1718963652022
20. 1718963652179
21. 1718963652330
22. 1718963652489
23. 1718963652639
24. 1718963652798
25. 1718963652947
26. 1718963653057
27. 1718963653204
28. 1718963653363
29. 1718963653512
30. 1718963653672
31. 1718963653821
32. 1718963653889
33. 1718963654079
34. 1718963654195
35. 1718963654336
36. 1718963654450
37. 1718963654591
38. 1718963654708
39. 1718963654847
40. 1718963654965
41. 1718963655104
42. 1718963655220
43. 1718963655362
44. 1718963655477
45. 1718963655619
46. 1718963655735
47. 1718963655875
48. 1718963655992
49. 1718963656134
50. 1718963656249
51. 1718963656391
52. 1718963656504
53. 1718963656647
54. 1718963656762
55. 1718963656905
56. 1718963657020
57. 1718963657161
58. 1718963657279
59. 1718963657416
60. 1718963657538
61. 1718963657671
62. 1718963657792
63. 1718963657930
64. 1718963658050
65. 1718963658187
66. 1718963658363
67. 1718963658492
68. 1718963658619
69. 1718963658747
70. 1718963658879
71. 1718963659001
72. 1718963659136
73. 1718963659260
74. 1718963659392
75. 1718963659515
76. 1718963659645
77. 1718963659769
78. 1718963659904
79. 1718963660026
