INITIAL
* 6:0pm Jun 21, 2024
* a0 vs a1
* 1 2 2 2 2 2 5 1 2 2 2 2 2 5
* X X X X
* X X X X
* X X X X
* X X X X
* X X X X
* X X X X
* X X X X
* X X X X
* first 1
* time 900
* 1. b6(n) d6(N)
* 2. a7(g) d5(c)
* 3. b3(p) d6-d5
* 4. d8(c) d5-d6
* 5. d8-d6 a8(p)
* 6. a6(M) b2(P)
* 7. c6(C) a6-b6
* 8. d6-b6 d2(G)
* 9. b3-b2 c6-d6
* 10. b6-a6 d6-c6
* 11. a6-b6 c6-d6
* 12. b2-b3 d6-c6
* 13. b3-b2 c6-d6
* 14. b6-a6 a3(n)
* 15. c1(p) c2(R)
* 16. b2-b3 d6-d5
* 17. a6-b6 c2-b2
* 18. b6-c6 b2-c2
* 19. d1(P) a2(p)
* 20. b3-b2 d4(N)
* 21. b2-b3 c2-c1
* 22. b3-b2 d2-c2
* 23. c6-d6
* SocketBroken a0 Wins 1.000000,0.000000
* Comment 0 0
0. 1718964041052
1. 1718964041052
2. 1718964041247
3. 1718964041425
4. 1718964041551
5. 1718964041735
6. 1718964041859
7. 1718964042046
8. 1718964042165
9. 1718964042357
10. 1718964042473
11. 1718964042668
12. 1718964042780
13. 1718964042980
14. 1718964043135
15. 1718964043289
16. 1718964043443
17. 1718964043600
18. 1718964043755
19. 1718964043911
20. 1718964044060
21. 1718964044221
22. 1718964044370
23. 1718964044532
24. 1718964044677
25. 1718964044842
26. 1718964044986
27. 1718964045153
28. 1718964045294
29. 1718964045464
30. 1718964045601
31. 1718964045776
32. 1718964045909
33. 1718964046088
34. 1718964046213
35. 1718964046398
36. 1718964046521
37. 1718964046711
38. 1718964046827
39. 1718964047022
40. 1718964047134
41. 1718964047334
42. 1718964047490
43. 1718964047646
44. 1718964047796
45. 1718964047955
