INITIAL
* 6:51pm Jun 21, 2024
* a0 vs a1
* 1 2 2 2 2 2 5 1 2 2 2 2 2 5
* X X X X
* X X X X
* X X X X
* X X X X
* X X X X
* X X X X
* X X X X
* X X X X
* first 0
* time 900
* 1. b6(M) d6(G)
* 2. a7(p) d5(K)
* 3. b3(c) d1(p)
* 4. a4(n) d8(P)
* 5. c5(G) a6(k)
* 6. a5(p) a2(P)
* 7. b8(g) b5(P)
* 8. c4(R) c1(C)
* 9. b5-a5 b3-b6
* 10. a5-a6 b6-d6
* 11. a6-a7 d6-d8
* 12. c5-b5 d8-d5
* 13. c4-c5 a4-a5
* 14. b5-a5 d2(r)
* 15. a3(p) b4(P)
* 16. a5-a4 a3-a2
* 17. b4-b3 d5-d6
* 18. c5-c4 a2-a3
* 19. a4-a5 c6(P)
* 20. a5-a4 a3-a2
* 21. c4-b4 d6-d5
* 22. c6-b6 d5-d6
* 23. a4-a5
* SocketBroken a0 Wins 1.000000,0.000000
* Comment 0 0
0. 1718967114752
1. 1718967114752
2. 1718967114931
3. 1718967115059
4. 1718967115190
5. 1718967115314
6. 1718967115444
7. 1718967115573
8. 1718967115700
9. 1718967115829
10. 1718967115958
11. 1718967116085
12. 1718967116216
13. 1718967116343
14. 1718967116472
15. 1718967116599
16. 1718967116728
17. 1718967116857
18. 1718967116983
19. 1718967117115
20. 1718967117240
21. 1718967117372
22. 1718967117498
23. 1718967117628
24. 1718967117757
25. 1718967117885
26. 1718967118013
27. 1718967118141
28. 1718967118269
29. 1718967118400
30. 1718967118525
31. 1718967118654
32. 1718967118781
33. 1718967118910
34. 1718967119038
35. 1718967119170
36. 1718967119294
37. 1718967119426
38. 1718967119551
39. 1718967119682
40. 1718967119804
41. 1718967119937
42. 1718967120061
43. 1718967120193
44. 1718967120317
45. 1718967120446
