INITIAL
* 2:52pm Jul 23, 2024
* a1 vs a0
* 1 2 2 2 2 2 5 1 2 2 2 2 2 5
* X X X X
* X X X X
* X X X X
* X X X X
* X X X X
* X X X X
* X X X X
* X X X X
* first 0
* time 900
* 1. b1(C) b4(g)
* 2. a1(p) b5(N)
* 3. a8(m) b6(G)
* 4. d8(n) c7(P)
* 5. d5(r) c8(M)
* 6. c2(p) c6(P)
* 7. b7(c) b8(N)
* 8. c4(R) b4-b5
* 9. d2(R) a4(P)
* 10. d3(m) a3(K)
* 11. d6(M) c3(g)
* 12. c5(r) d3-d2
* SocketBroken a0 Wins 0.000000,1.000000
* Comment 0 0
0. 1721717541361
1. 1721717541361
2. 1721717541541
3. 1721717541705
4. 1721717541893
5. 1721717542061
6. 1721717542245
7. 1721717542405
8. 1721717542593
9. 1721717542757
10. 1721717542949
11. 1721717543109
12. 1721717543293
13. 1721717543461
14. 1721717543645
15. 1721717543813
16. 1721717543997
17. 1721717544161
18. 1721717544349
19. 1721717544513
20. 1721717544697
21. 1721717544865
22. 1721717545049
23. 1721717545217
24. 1721717545405
