INITIAL
* 2:16pm Jul 23, 2024
* a0 vs a1
* 1 2 2 2 2 2 5 1 2 2 2 2 2 5
* X X X X
* X X X X
* X X X X
* X X X X
* X X X X
* X X X X
* X X X X
* X X X X
* first 1
* time 900
* 1. a8(m) b1(K)
* 2. c3(R) a7(n)
* 3. b5(P) d2(p)
* 4. c7(C) d3(M)
* 5. c8(g) b8(k)
* 6. a1(N) d1(m)
* 7. c1(P)
* SocketBroken a0 Wins 1.000000,0.000000
* Comment 0 0
0. 1721715361477
1. 1721715361477
2. 1721715361665
3. 1721715361825
4. 1721715362013
5. 1721715362173
6. 1721715362365
7. 1721715362521
8. 1721715362669
9. 1721715362821
10. 1721715362969
11. 1721715363129
12. 1721715363321
13. 1721715363473
