INITIAL
* 2:3pm Jul 23, 2024
* a0 vs a1
* 1 2 2 2 2 2 5 1 2 2 2 2 2 5
* X X X X
* X X X X
* X X X X
* X X X X
* X X X X
* X X X X
* X X X X
* X X X X
* first 1
* time 900
* 1. a8(c) a3(m)
* 2. c3(p) a7(k)
* 3. b5(p) b7(p)
* 4. c8(M) a1(n)
* 5. d2(p) b6(P)
* 6. b7-b6 b1(P)
* 7. b8(N) c6(r)
* 8. a2(C) a6(p)
* 9. c1(R) c4(c)
* 10. b6-b7 b4(n)
* 11. b3(R) b3-b4
* 12. d1(K) d4(P)
* 13. d2-d1 a5(G)
* 14. a4(g) b8-b7
* 15. a7-b7 c8-b8
* 16. b7-b6 c5(P)
* 17. d7(M) d3(G)
* 18. a6-a7 d3-c3
* 19. b6-b7 d6(N)
* 20. c6-c5 a5-b5
* 21. c5-c6 c2(m)
* 22. b7-b8 d4-d3
* 23. a4-b4 c7(C)
* 24. a3-a2 d3-d2
* 25. b2(r) b5-b4
* 26. c4-c7 c3-c4
* 27. a7-b7 b4-b3
* 28. c7-c4 b3-c3
* 29. a2-a3 d8(g)
* 30. c4-d4 c3-d3
* 31. a8-a7 d3-d4
* 32. b7-b6 d5(P)
* 33. b8-a8 d2-d3
* 34. d8-d7 d3-c3
* 35. a7-b7 d4-d3
* 36. c2-c1 d3-d2
* 37. a1-b1 c3-d3
* 38. b2-b3 d5-d4
* 39. c6-d6 d2-c2
* 40. a8-b8 c2-c3
* 41. a3-a4 c3-c4
* 42. d7-d8 c4-b4
* 43. c1-c2 d4-d5
* 44. b1-a1 d5-d4
* 45. b3-a3 b4-a4
* 46. d8-d7 a4-a3
* 47. c2-b2 d3-d2
* 48. b7-a7 d2-d1
* 49. b8-b7 d4-c4
* 50. b6-c6 c4-c5
* 51. a7-a8 c5-c4
* 52. b7-c7 a3-a2
* 53. c6-c5 c4-c3
* 54. b2-c2 c3-b3
* 55. a1-b1 a2-a3
* 56. c7-c6 d1-c1
* 57. a8-b8 b3-b2
* 58. c6-c7 b2-b3
* 59. c7-c6 b3-b2
* 60. c6-b6 a3-a4
* 61. b8-b2 a4-a3
* 62. c2-d2 a3-a2
* 63. b2-b3 c1-c2
* 64. b3-a3 a2-b2
* 65. d6-c6 b2-a2
* 66. b1-b2 c2-c3
* 67. b6-a6 a2-b2
* 68. a6-a7 c3-c4
* 69. d2-d3 b2-b3
* 70. d7-c7 b3-b4
* 71. c7-b7 c4-c5
* 72. a3-a4 b4-c4
* 73. d3-c3 c4-b4
* 74. a4-a5 c5-d5
* 75. c6-d6 d5-d4
* 76. d6-c6 b4-b3
* 77. c6-c5 b3-b4
* 78. c5-b5 d4-c4
* 79. b7-c7 c4-d4
* 80. b5-b6 b4-b3
* 81. c7-d7 b3-c3
* 82. d7-c7 d4-d3
* 83. c7-d7 c3-b3
* 84. a5-a4 d3-c3
* 85. a4-b4 b3-b2
* 86. b4-b5 c3-d3
* 87. b5-a5 d3-c3
* 88. a5-a6 b2-b1
* 89. d7-d6 c3-d3
* 90. a7-a8 d3-d4
* 91. a8-b8 b1-b2
* 92. d6-c6 d4-c4
* 93. b8-b7 c4-c3
* 94. a6-a7 b2-b3
* 95. a7-a6 c3-c2
* 96. a6-a5
* SocketBroken a0 Wins 1.000000,0.000000
* Comment 0 0
0. 1721714588900
1. 1721714588900
2. 1721714589089
3. 1721714589245
4. 1721714589389
5. 1721714589549
6. 1721714589741
7. 1721714589893
8. 1721714590041
9. 1721714590197
10. 1721714590341
11. 1721714590497
12. 1721714590641
13. 1721714590797
14. 1721714590941
15. 1721714591097
16. 1721714591245
17. 1721714591397
18. 1721714591549
19. 1721714591697
20. 1721714591845
21. 1721714592005
22. 1721714592197
23. 1721714592349
24. 1721714592501
25. 1721714592653
26. 1721714592801
27. 1721714592957
28. 1721714593149
29. 1721714593301
30. 1721714593449
31. 1721714593609
32. 1721714593805
33. 1721714593957
34. 1721714594101
35. 1721714594253
36. 1721714594401
37. 1721714594557
38. 1721714594701
39. 1721714594857
40. 1721714595005
41. 1721714595157
42. 1721714595305
43. 1721714595461
44. 1721714595609
45. 1721714595757
46. 1721714595905
47. 1721714596057
48. 1721714596209
49. 1721714596357
50. 1721714596509
51. 1721714596661
52. 1721714596809
53. 1721714596961
54. 1721714597109
55. 1721714597261
56. 1721714597409
57. 1721714597561
58. 1721714597717
59. 1721714597861
60. 1721714598017
61. 1721714598165
62. 1721714598313
63. 1721714598465
64. 1721714598613
65. 1721714598765
66. 1721714598913
67. 1721714599065
68. 1721714599213
69. 1721714599365
70. 1721714599517
71. 1721714599665
72. 1721714599821
73. 1721714599973
74. 1721714600117
75. 1721714600273
76. 1721714600421
77. 1721714600573
78. 1721714600717
79. 1721714600869
80. 1721714601021
81. 1721714601173
82. 1721714601321
83. 1721714601473
84. 1721714601621
85. 1721714601773
86. 1721714601921
87. 1721714602073
88. 1721714602225
89. 1721714602373
90. 1721714602525
91. 1721714602677
92. 1721714602825
93. 1721714602977
94. 1721714603129
95. 1721714603281
96. 1721714603425
97. 1721714603577
98. 1721714603725
99. 1721714603881
100. 1721714604029
101. 1721714604181
102. 1721714604329
103. 1721714604481
104. 1721714604629
105. 1721714604781
106. 1721714604929
107. 1721714605081
108. 1721714605229
109. 1721714605385
110. 1721714605533
111. 1721714605685
112. 1721714605833
113. 1721714605985
114. 1721714606133
115. 1721714606289
116. 1721714606433
117. 1721714606589
118. 1721714606737
119. 1721714606893
120. 1721714607085
121. 1721714607237
122. 1721714607385
123. 1721714607545
124. 1721714607737
125. 1721714607889
126. 1721714608041
127. 1721714608189
128. 1721714608341
129. 1721714608493
130. 1721714608637
131. 1721714608793
132. 1721714608941
133. 1721714609093
134. 1721714609241
135. 1721714609393
136. 1721714609541
137. 1721714609693
138. 1721714609841
139. 1721714609997
140. 1721714610145
141. 1721714610297
142. 1721714610445
143. 1721714610597
144. 1721714610745
145. 1721714610897
146. 1721714611045
147. 1721714611197
148. 1721714611345
149. 1721714611501
150. 1721714611649
151. 1721714611797
152. 1721714611949
153. 1721714612101
154. 1721714612249
155. 1721714612401
156. 1721714612549
157. 1721714612701
158. 1721714612849
159. 1721714613005
160. 1721714613149
161. 1721714613301
162. 1721714613449
163. 1721714613601
164. 1721714613753
165. 1721714613901
166. 1721714614057
167. 1721714614205
168. 1721714614353
169. 1721714614505
170. 1721714614653
171. 1721714614805
172. 1721714614957
173. 1721714615109
174. 1721714615257
175. 1721714615405
176. 1721714615561
177. 1721714615705
178. 1721714615857
179. 1721714616009
180. 1721714616157
181. 1721714616309
182. 1721714616457
183. 1721714616613
184. 1721714616757
185. 1721714616909
186. 1721714617057
187. 1721714617209
188. 1721714617361
189. 1721714617513
190. 1721714617657
191. 1721714617813
