INITIAL
* 7:30pm Feb 18, 2026
* a1_lightzero vs a0_mu
* 1 2 2 2 2 2 5 1 2 2 2 2 2 5
* X X X X
* X X X X
* X X X X
* X X X X
* X X X X
* X X X X
* X X X X
* X X X X
* first 0
* time 900
* 1. b8(G) b1(p)
* 2. a4(P) c7(M)
* 3. d7(N) a6(c)
* 4. d6(m) c2(C)
* 5. d3(N) d8(R)
* 6. d2(P) c8(g)
* 7. c5(C) a5(p)
* 8. d5(n) c3(n)
* 9. d1(p) b6(R)
* 10. a7(G) a8(p)
* 11. d4(g) a3(m)
* 12. b3(P) b2(r)
* 13. a1(p) c6(P)
* 14. a2(k) b5(M)
* 15. b7(P) c4(r)
* 16. c1(c) b4(K)
* 17. b5-a5 a3-a4
* 18. a5-b5 a4-a3
* 19. b8-a8 a3-a4
* 20. a8-b8 a4-a3
* 21. b8-a8 a3-a4
* 22. a8-b8 a4-a3
* 23. b8-a8 a3-a4
* 24. a8-b8 a4-a3
* 25. b8-a8
* PositionRepetitionDraw,3,4 a1_lightzero Draw 0.500000,0.500000
* Comment 0 0
0. 1771414248545
1. 1771414248545
2. 1771414249730
3. 1771414250741
4. 1771414251735
5. 1771414252746
6. 1771414253690
7. 1771414254701
8. 1771414255646
9. 1771414256657
10. 1771414257651
11. 1771414258662
12. 1771414259606
13. 1771414260618
14. 1771414261611
15. 1771414262623
16. 1771414263617
17. 1771414264626
18. 1771414265572
19. 1771414266580
20. 1771414267527
21. 1771414268535
22. 1771414269483
23. 1771414270488
24. 1771414271438
25. 1771414272442
26. 1771414273444
27. 1771414274446
28. 1771414275399
29. 1771414276400
30. 1771414277354
31. 1771414278355
32. 1771414279310
33. 1771414280308
34. 1771414281265
35. 1771414282262
36. 1771414283220
37. 1771414284216
38. 1771414285175
39. 1771414286170
40. 1771414287131
41. 1771414288174
42. 1771414289136
43. 1771414290179
44. 1771414291141
45. 1771414292183
46. 1771414293147
47. 1771414294186
48. 1771414295201
49. 1771414296240
