INITIAL
* 7:55pm Feb 18, 2026
* a1_lightzero vs a0_mu
* 1 2 2 2 2 2 5 1 2 2 2 2 2 5
* X X X X
* X X X X
* X X X X
* X X X X
* X X X X
* X X X X
* X X X X
* X X X X
* first 0
* time 900
* 1. b8(P) b1(M)
* 2. a4(p) b5(m)
* 3. c7(c) a7(p)
* 4. d6(n) a6(P)
* 5. d3(p) a5(c)
* 6. b2(M) c1(C)
* 7. d7(R) c8(P)
* 8. d1(N) c5(N)
* 9. d5(k) d8(P)
* 10. d2(n) c2(K)
* 11. c3(r) a2(g)
* 12. c4(G) b3(p)
* 13. b6(G) a1(p)
* 14. a3(C) b4(m)
* 15. d4(g) a2-a3
* 16. c6(P) a8(R)
* 17. d7-c7 b7(r)
* 18. a8-a7 a1-a2
* 19. b1-a1 b7-c7
* 20. a1-b1 c7-d7
* 21. c2-d2 a2-a1
* 22. d2-c2 a1-a2
* 23. c2-d2 a2-a1
* 24. d2-c2 a1-a2
* 25. c2-d2 a2-a1
* 26. d2-c2 a1-a2
* 27. c2-d2
* PositionRepetitionDraw,3,4 a1_lightzero Draw 0.500000,0.500000
* Comment 0 0
0. 1771415714950
1. 1771415714950
2. 1771415716132
3. 1771415717145
4. 1771415718136
5. 1771415719097
6. 1771415720090
7. 1771415721100
8. 1771415722044
9. 1771415723052
10. 1771415723997
11. 1771415725006
12. 1771415725952
13. 1771415726959
14. 1771415727906
15. 1771415728912
16. 1771415729859
17. 1771415730866
18. 1771415731812
19. 1771415732820
20. 1771415733765
21. 1771415734773
22. 1771415735719
23. 1771415736726
24. 1771415737672
25. 1771415738680
26. 1771415739675
27. 1771415740684
28. 1771415741628
29. 1771415742638
30. 1771415743633
31. 1771415744641
32. 1771415745588
33. 1771415746595
34. 1771415747543
35. 1771415748549
36. 1771415749498
37. 1771415750503
38. 1771415751453
39. 1771415752457
40. 1771415753458
41. 1771415754460
42. 1771415755413
43. 1771415756415
44. 1771415757366
45. 1771415758367
46. 1771415759319
47. 1771415760320
48. 1771415761273
49. 1771415762274
50. 1771415763227
51. 1771415764227
52. 1771415765180
53. 1771415766181
