INITIAL
* 7:32pm Feb 18, 2026
* a1_lightzero vs a0_mu
* 1 2 2 2 2 2 5 1 2 2 2 2 2 5
* X X X X
* X X X X
* X X X X
* X X X X
* X X X X
* X X X X
* X X X X
* X X X X
* first 0
* time 900
* 1. b8(P) b1(c)
* 2. a4(P) b5(p)
* 3. d6(G) a7(n)
* 4. d1(C) c7(R)
* 5. b2(P) a6(C)
* 6. d3(r) a5(k)
* 7. d7(p) c8(M)
* 8. d5(m) b6(c)
* 9. b7(n) a3(R)
* 10. c6(G) b3(N)
* 11. a1(g) c5(p)
* 12. d4(N) d8(P)
* 13. a8(p) c2(p)
* 14. c1(K) b4(M)
* 15. a2(m) c3(r)
* 16. c4(g) d2(P)
* 17. d6-d7 a2-a3
* 18. c6-d6 a1-a2
* 19. d6-c6 a2-a1
* 20. c6-d6 a1-a2
* 21. d6-c6 a2-a1
* 22. c6-d6 a1-a2
* 23. d6-c6 a2-a1
* PositionRepetitionDraw,3,4 a1_lightzero Draw 0.500000,0.500000
* Comment 0 0
0. 1771414364957
1. 1771414364957
2. 1771414366093
3. 1771414367102
4. 1771414368048
5. 1771414369056
6. 1771414370004
7. 1771414371010
8. 1771414371957
9. 1771414372963
10. 1771414373911
11. 1771414374917
12. 1771414375865
13. 1771414376870
14. 1771414377819
15. 1771414378824
16. 1771414379773
17. 1771414380778
18. 1771414381727
19. 1771414382731
20. 1771414383682
21. 1771414384685
22. 1771414385634
23. 1771414386639
24. 1771414387638
25. 1771414388643
26. 1771414389592
27. 1771414390597
28. 1771414391546
29. 1771414392551
30. 1771414393501
31. 1771414394504
32. 1771414395456
33. 1771414396459
34. 1771414397408
35. 1771414398413
36. 1771414399362
37. 1771414400368
38. 1771414401316
39. 1771414402323
40. 1771414403269
41. 1771414404279
42. 1771414405273
43. 1771414406284
44. 1771414407277
45. 1771414408290
46. 1771414409281
