INITIAL
* 7:49pm Feb 18, 2026
* a0_mu vs a1_lightzero
* 1 2 2 2 2 2 5 1 2 2 2 2 2 5
* X X X X
* X X X X
* X X X X
* X X X X
* X X X X
* X X X X
* X X X X
* X X X X
* first 0
* time 900
* 1. b1(C) b8(m)
* 2. c7(P) a4(P)
* 3. a6(p) b2(P)
* 4. d8(G) d3(n)
* 5. c8(p) c5(m)
* 6. d6(c) a1(p)
* 7. a5(r) d1(R)
* 8. c3(G) d5(M)
* 9. d7(r) a2(n)
* 10. a7(p) b3(K)
* 11. b5(P) c1(c)
* 12. c2(N) b6(k)
* 13. b4(M) a3(N)
* 14. d2(p) c4(g)
* 15. b7(R) d4(C)
* 16. c6(g) a8(P)
* 17. b7-a7 b8-b7
* 18. a8-b8 a5-a4
* 19. a7-a8 a4-a5
* 20. a8-a7 a5-a4
* 21. a7-a8 a4-a5
* 22. a8-a7 a5-a4
* 23. a7-a8 a4-a5
* 24. a8-a7 a5-a4
* PositionRepetitionDraw,3,4 a0_mu Draw 0.500000,0.500000
* Comment 0 0
0. 1771415358176
1. 1771415358176
2. 1771415359364
3. 1771415360320
4. 1771415361319
5. 1771415362274
6. 1771415363272
7. 1771415364228
8. 1771415365225
9. 1771415366181
10. 1771415367178
11. 1771415368135
12. 1771415369130
13. 1771415370088
14. 1771415371084
15. 1771415372042
16. 1771415373037
17. 1771415373995
18. 1771415374990
19. 1771415375949
20. 1771415376943
21. 1771415377904
22. 1771415378947
23. 1771415379909
24. 1771415380950
25. 1771415381914
26. 1771415382954
27. 1771415383919
28. 1771415384958
29. 1771415385925
30. 1771415386961
31. 1771415387930
32. 1771415388965
33. 1771415389935
34. 1771415390969
35. 1771415391940
36. 1771415392923
37. 1771415393896
38. 1771415394877
39. 1771415395851
40. 1771415396882
41. 1771415397855
42. 1771415398836
43. 1771415399808
44. 1771415400839
45. 1771415401811
46. 1771415402843
47. 1771415403814
48. 1771415404796
