INITIAL
* 8:4pm Feb 18, 2026
* a1_lightzero vs a0_mu
* 1 2 2 2 2 2 5 1 2 2 2 2 2 5
* X X X X
* X X X X
* X X X X
* X X X X
* X X X X
* X X X X
* X X X X
* X X X X
* first 1
* time 900
* 1. b8(p) b1(r)
* 2. a4(G) c7(G)
* 3. d7(P) a6(n)
* 4. d3(c) d8(R)
* 5. b2(p) c8(M)
* 6. d1(k) d6(M)
* 7. d5(c) a5(P)
* 8. a2(n) a7(p)
* 9. c2(p) b6(K)
* 10. d2(P) a3(C)
* 11. c4(N) b3(m)
* 12. b4(C) c5(p)
* 13. d4(g) c3(m)
* 14. b7(P) a8(g)
* 15. a1(N) c6(R)
* 16. b5(r) c1(P)
* 17. b5-a5 b6-b5
* 18. a6-b6 c1-c2
* 19. d1-c1 b5-a5
* 20. c1-d1 a5-b5
* 21. d1-c1 d2-d1
* 22. a7-a6 d1-d2
* 23. a8-a7 a1-a2
* 24. a7-a8 a2-a1
* 25. a8-a7 a1-a2
* 26. a7-a8 a2-a1
* 27. a8-a7 a1-a2
* 28. a7-a8 a2-a1
* 29. a8-a7 a1-a2
* PositionRepetitionDraw,3,4 a1_lightzero Draw 0.500000,0.500000
* Comment 0 0
0. 1771416245514
1. 1771416245514
2. 1771416246699
3. 1771416247660
4. 1771416248652
5. 1771416249665
6. 1771416250706
7. 1771416251720
8. 1771416252759
9. 1771416253776
10. 1771416254763
11. 1771416255731
12. 1771416256717
13. 1771416257735
14. 1771416258771
15. 1771416259789
16. 1771416260775
17. 1771416261793
18. 1771416262828
19. 1771416263847
20. 1771416264832
21. 1771416265850
22. 1771416266836
23. 1771416267854
24. 1771416268890
25. 1771416269908
26. 1771416270893
27. 1771416271912
28. 1771416272896
29. 1771416273916
30. 1771416274899
31. 1771416275919
32. 1771416276952
33. 1771416277972
34. 1771416278954
35. 1771416279976
36. 1771416280957
37. 1771416281930
38. 1771416282909
39. 1771416283933
40. 1771416284912
41. 1771416285887
42. 1771416286864
43. 1771416287892
44. 1771416288867
45. 1771416289895
46. 1771416290871
47. 1771416291849
48. 1771416292824
49. 1771416293853
50. 1771416294827
51. 1771416295857
52. 1771416296831
53. 1771416297861
54. 1771416298885
55. 1771416299915
56. 1771416300888
57. 1771416301917
58. 1771416302941
