INITIAL
* 7:26pm Feb 18, 2026
* a1_lightzero vs a0_mu
* 1 2 2 2 2 2 5 1 2 2 2 2 2 5
* X X X X
* X X X X
* X X X X
* X X X X
* X X X X
* X X X X
* X X X X
* X X X X
* first 0
* time 900
* 1. b8(P) b1(K)
* 2. c7(P) b5(N)
* 3. a4(R) a7(g)
* 4. b2(p) a5(M)
* 5. a6(p) c3(c)
* 6. d2(G) c5(P)
* 7. d8(n) d7(C)
* 8. d3(P) c8(C)
* 9. b4(r) a8(r)
* 10. b7(p) d1(N)
* 11. a1(n) c6(m)
* 12. b3(G) c6-c7
* 13. c4(R) a2(p)
* 14. d4(P) a3(m)
* 15. c2(M) c1(p)
* 16. d6(g) b6(k)
* 17. a5-a6 b4-c4
* 18. b3-b4 c4-d4
* 19. b4-c4 a3-b3
* 20. c4-b4 a2-a3
* 21. a4-a5 c3-c4
* 22. d5(c) b3-c3
* 23. b4-b3 a1-a2
* 24. b3-b4 a2-a1
* 25. b4-b3 a1-a2
* 26. b3-b4 a2-a1
* 27. b4-b3 a1-a2
* 28. b3-b4 a2-a1
* PositionRepetitionDraw,3,4 a1_lightzero Draw 0.500000,0.500000
* Comment 0 0
0. 1771413983335
1. 1771413983335
2. 1771413984473
3. 1771413985481
4. 1771413986427
5. 1771413987384
6. 1771413988331
7. 1771413989338
8. 1771413990285
9. 1771413991292
10. 1771413992238
11. 1771413993197
12. 1771413994142
13. 1771413995102
14. 1771413996046
15. 1771413997007
16. 1771413998000
17. 1771413999013
18. 1771414000004
19. 1771414001017
20. 1771414002008
21. 1771414003021
22. 1771414004012
23. 1771414005024
24. 1771414006016
25. 1771414007027
26. 1771414008021
27. 1771414009031
28. 1771414009976
29. 1771414010984
30. 1771414011930
31. 1771414012888
32. 1771414013833
33. 1771414014791
34. 1771414015736
35. 1771414016745
36. 1771414017690
37. 1771414018649
38. 1771414019594
39. 1771414020553
40. 1771414021497
41. 1771414022457
42. 1771414023402
43. 1771414024361
44. 1771414025306
45. 1771414026314
46. 1771414027310
47. 1771414028318
48. 1771414029264
49. 1771414030271
50. 1771414031218
51. 1771414032175
52. 1771414033171
53. 1771414034178
54. 1771414035124
55. 1771414036132
56. 1771414037078
