INITIAL
* 7:5pm Feb 18, 2026
* a0_mu vs a1_lightzero
* 1 2 2 2 2 2 5 1 2 2 2 2 2 5
* X X X X
* X X X X
* X X X X
* X X X X
* X X X X
* X X X X
* X X X X
* X X X X
* first 0
* time 900
* 1. b1(N) b8(C)
* 2. b5(P) b2(c)
* 3. a7(c) a4(r)
* 4. b7(K) d3(C)
* 5. c6(g) d7(m)
* 6. a5(G) d1(R)
* 7. a3(P) d6(M)
* 8. c3(r) d5(P)
* 9. b6(n) c1(R)
* 10. c8(g) c7(p)
* 11. d8(m) d2(k)
* 12. c5(N) a8(p)
* 13. b3(p) b4(G)
* 14. d4(p) a2(n)
* 15. c2(P) a6(M)
* 16. a1(p) c4(P)
* 17. b4-a4 c3-d3
* 18. c4-c3 b3-b4
* 19. c5-c4 d2-d1
* 20. c4-c5 d3-d2
* 21. c5-c4 d2-d3
* 22. c4-c5 d3-d2
* 23. c5-c4 d2-d3
* 24. c4-c5 d3-d2
* 25. c5-c4 d2-d3
* PositionRepetitionDraw,3,4 a0_mu Draw 0.500000,0.500000
* Comment 0 0
0. 1771412734191
1. 1771412734191
2. 1771412735372
3. 1771412736337
4. 1771412737325
5. 1771412738293
6. 1771412739329
7. 1771412740298
8. 1771412741283
9. 1771412742252
10. 1771412743236
11. 1771412744206
12. 1771412745189
13. 1771412746161
14. 1771412747193
15. 1771412748165
16. 1771412749146
17. 1771412750119
18. 1771412751150
19. 1771412752123
20. 1771412753153
21. 1771412754177
22. 1771412755207
23. 1771412756181
24. 1771412757211
25. 1771412758185
26. 1771412759214
27. 1771412760189
28. 1771412761218
29. 1771412762192
30. 1771412763222
31. 1771412764197
32. 1771412765175
33. 1771412766150
34. 1771412767128
35. 1771412768103
36. 1771412769083
37. 1771412770057
38. 1771412771035
39. 1771412772011
40. 1771412772989
41. 1771412773965
42. 1771412774943
43. 1771412775919
44. 1771412776947
45. 1771412777924
46. 1771412778952
47. 1771412779929
48. 1771412780955
49. 1771412781933
50. 1771412782959
