INITIAL
* 7:17pm Feb 18, 2026
* a1_lightzero vs a0_mu
* 1 2 2 2 2 2 5 1 2 2 2 2 2 5
* X X X X
* X X X X
* X X X X
* X X X X
* X X X X
* X X X X
* X X X X
* X X X X
* first 0
* time 900
* 1. b8(N) b1(p)
* 2. a4(K) c7(P)
* 3. b2(n) a6(N)
* 4. a5(C) b5(k)
* 5. d3(R) d6(c)
* 6. d7(C) c5(R)
* 7. d1(m) c8(G)
* 8. b6(p) d8(g)
* 9. c3(P) a3(g)
* 10. d5(p) c2(r)
* 11. b7(c) b3(G)
* 12. c4(P) d4(M)
* 13. d2(r) a2(P)
* 14. a7(P) a1(p)
* 15. a8(M) c1(m)
* 16. c6(p) b4(n)
* 17. b3-b4 a3-b3
* 18. a4-a3 b3-c3
* 19. b4-b3 b5-b4
* 20. c5-b5 b4-a4
* 21. b3-b4 a4-a5
* 22. b4-b3 a5-a4
* 23. b3-b4 a4-a5
* 24. b4-b3 a5-a4
* 25. b3-b4 a4-a5
* 26. b4-b3 a5-a4
* 27. b3-b4 a4-a5
* PositionRepetitionDraw,3,4 a1_lightzero Draw 0.500000,0.500000
* Comment 0 0
0. 1771413466150
1. 1771413466150
2. 1771413467334
3. 1771413468345
4. 1771413469338
5. 1771413470348
6. 1771413471292
7. 1771413472302
8. 1771413473246
9. 1771413474256
10. 1771413475200
11. 1771413476210
12. 1771413477154
13. 1771413478164
14. 1771413479108
15. 1771413480118
16. 1771413481062
17. 1771413482072
18. 1771413483016
19. 1771413484027
20. 1771413485021
21. 1771413486031
22. 1771413486975
23. 1771413487985
24. 1771413488929
25. 1771413489939
26. 1771413490933
27. 1771413491943
28. 1771413492887
29. 1771413493897
30. 1771413494891
31. 1771413495901
32. 1771413496845
33. 1771413497855
34. 1771413498799
35. 1771413499810
36. 1771413500804
37. 1771413501816
38. 1771413502808
39. 1771413503821
40. 1771413504862
41. 1771413505876
42. 1771413506865
43. 1771413507881
44. 1771413508870
45. 1771413509885
46. 1771413510874
47. 1771413511888
48. 1771413512879
49. 1771413513891
50. 1771413514883
51. 1771413515895
52. 1771413516887
53. 1771413517899
54. 1771413518892
