INITIAL
* 7:16pm Feb 18, 2026
* a0_mu vs a1_lightzero
* 1 2 2 2 2 2 5 1 2 2 2 2 2 5
* X X X X
* X X X X
* X X X X
* X X X X
* X X X X
* X X X X
* X X X X
* X X X X
* first 0
* time 900
* 1. b1(P) b8(P)
* 2. b5(P) a4(C)
* 3. a7(p) b2(R)
* 4. d6(C) d7(m)
* 5. c8(G) d3(n)
* 6. a5(p) d2(K)
* 7. a8(G) a1(c)
* 8. c4(N) c3(k)
* 9. d1(P) c7(c)
* 10. d8(n) a2(P)
* 11. b3(p) c5(m)
* 12. d4(M) d5(p)
* 13. b6(r) a6(r)
* 14. a3(N) c2(p)
* 15. b7(R) b4(g)
* 16. c1(g) c6(M)
* 17. c6-c7 c5-c6
* 18. d4-d5 d3-d4
* 19. c4-c5 b4-c4
* 20. a4-b4 c3-d3
* 21. a3-a4 c4-c3
* 22. a4-a3 c3-c4
* 23. a3-a4 c4-c3
* 24. a4-a3 d7-d6
* 25. c5-c4 d8-d7
* 26. c4-c5 c3-c4
* 27. a3-a4 c4-c3
* 28. a4-a3 c3-c4
* 29. a3-a4 c4-c3
* 30. a4-a3 c3-c4
* 31. a3-a4 c4-c3
* 32. a4-a3
* PositionRepetitionDraw,3,4 a0_mu Draw 0.500000,0.500000
* Comment 0 0
0. 1771413392954
1. 1771413392954
2. 1771413394140
3. 1771413395100
4. 1771413396095
5. 1771413397056
6. 1771413398050
7. 1771413399012
8. 1771413400055
9. 1771413401018
10. 1771413402059
11. 1771413403023
12. 1771413404063
13. 1771413405029
14. 1771413406068
15. 1771413407032
16. 1771413408072
17. 1771413409036
18. 1771413410076
19. 1771413411040
20. 1771413412080
21. 1771413413045
22. 1771413414085
23. 1771413415100
24. 1771413416190
25. 1771413417204
26. 1771413418245
27. 1771413419209
28. 1771413420249
29. 1771413421264
30. 1771413422304
31. 1771413423269
32. 1771413424308
33. 1771413425273
34. 1771413426312
35. 1771413427327
36. 1771413428366
37. 1771413429331
38. 1771413430371
39. 1771413431335
40. 1771413432377
41. 1771413433340
42. 1771413434382
43. 1771413435394
44. 1771413436437
45. 1771413437399
46. 1771413438441
47. 1771413439403
48. 1771413440446
49. 1771413441408
50. 1771413442450
51. 1771413443412
52. 1771413444455
53. 1771413445417
54. 1771413446459
55. 1771413447421
56. 1771413448463
57. 1771413449425
58. 1771413450467
59. 1771413451430
60. 1771413452471
61. 1771413453434
62. 1771413454476
63. 1771413455438
