INITIAL
* 7:13pm Feb 18, 2026
* a0_mu vs a1_lightzero
* 1 2 2 2 2 2 5 1 2 2 2 2 2 5
* X X X X
* X X X X
* X X X X
* X X X X
* X X X X
* X X X X
* X X X X
* X X X X
* first 0
* time 900
* 1. b1(N) b8(P)
* 2. b5(p) b2(M)
* 3. a7(R) a4(p)
* 4. d6(r) c7(C)
* 5. a6(K) d7(c)
* 6. c8(r) d3(N)
* 7. c1(R) d1(C)
* 8. c5(m) d4(P)
* 9. d8(P) a1(p)
* 10. b6(n) d5(P)
* 11. b7(p) b3(G)
* 12. a8(p) c2(g)
* 13. b4(c) a3(g)
* 14. a5(k) c4(m)
* 15. c6(P) a2(G)
* 16. c3(n) d2(M)
* 17. b3-b4 a3-b3
* 18. b4-b5 b3-b4
* 19. a2-a3 a1-a2
* 20. b1-a1 d6-c6
* 21. a1-b1 a2-a1
* 22. a3-b3 a1-a2
* 23. b1-a1 a2-a3
* 24. b5-b4 a5-b5
* 25. a6-a5 a3-a2
* 26. a1-b1 a2-a3
* 27. b2-a2 c2-b2
* 28. a2-a1 b2-a2
* 29. b3-b2 c3-c2
* 30. b4-b3 c4-c3
* 31. b3-b4 c3-c4
* 32. b4-b3 c4-c3
* 33. b3-b4 c3-b3
* 34. b4-c4 b3-c3
* 35. c4-b4 c3-c4
* 36. b4-b3 c4-c3
* 37. b3-b4 c3-b3
* 38. b4-c4 b3-c3
* 39. c4-b4 c3-b3
* 40. b4-c4 b3-c3
* 41. c4-b4 c3-c4
* 42. b4-b3 c4-c3
* 43. b3-b4 c3-c4
* 44. b4-b3 c4-c3
* 45. b3-b4 c3-c4
* 46. b4-b3 c4-c3
* 47. b3-b4
* PositionRepetitionDraw,3,4 a0_mu Draw 0.500000,0.500000
* Comment 0 0
0. 1771413228725
1. 1771413228725
2. 1771413229910
3. 1771413230872
4. 1771413231865
5. 1771413232827
6. 1771413233818
7. 1771413234782
8. 1771413235773
9. 1771413236737
10. 1771413237777
11. 1771413238739
12. 1771413239780
13. 1771413240743
14. 1771413241784
15. 1771413242748
16. 1771413243788
17. 1771413244751
18. 1771413245792
19. 1771413246755
20. 1771413247796
21. 1771413248759
22. 1771413249800
23. 1771413250813
24. 1771413251854
25. 1771413252818
26. 1771413253859
27. 1771413254822
28. 1771413255862
29. 1771413256826
30. 1771413257866
31. 1771413258829
32. 1771413259870
33. 1771413260834
34. 1771413261875
35. 1771413262838
36. 1771413263878
37. 1771413264842
38. 1771413265881
39. 1771413266846
40. 1771413267885
41. 1771413268851
42. 1771413269888
43. 1771413270855
44. 1771413271892
45. 1771413272858
46. 1771413273895
47. 1771413274862
48. 1771413275900
49. 1771413276866
50. 1771413277904
51. 1771413278870
52. 1771413279908
53. 1771413280874
54. 1771413281911
55. 1771413282877
56. 1771413283915
57. 1771413284881
58. 1771413285919
59. 1771413286885
60. 1771413287923
61. 1771413288889
62. 1771413289926
63. 1771413290893
64. 1771413291929
65. 1771413292897
66. 1771413293933
67. 1771413294901
68. 1771413295937
69. 1771413296905
70. 1771413297941
71. 1771413298910
72. 1771413299945
73. 1771413300914
74. 1771413301950
75. 1771413302918
76. 1771413303953
77. 1771413304921
78. 1771413305956
79. 1771413306976
80. 1771413308010
81. 1771413308980
82. 1771413310014
83. 1771413310983
84. 1771413312019
85. 1771413312986
86. 1771413314023
87. 1771413315040
88. 1771413316077
89. 1771413317043
90. 1771413318081
91. 1771413319047
92. 1771413320084
93. 1771413321051
