INITIAL
* 8:21pm Feb 18, 2026
* a1_lightzero vs a0_mu
* 1 2 2 2 2 2 5 1 2 2 2 2 2 5
* X X X X
* X X X X
* X X X X
* X X X X
* X X X X
* X X X X
* X X X X
* X X X X
* first 0
* time 900
* 1. b8(G) b1(P)
* 2. a4(P) c7(C)
* 3. d7(R) a6(P)
* 4. d3(r) b5(N)
* 5. b2(c) d6(p)
* 6. d1(p) c8(N)
* 7. b6(k) a3(m)
* 8. d5(p) c2(P)
* 9. b4(R) a5(M)
* 10. c4(M) d4(m)
* 11. c3(g) c5(p)
* 12. d8(K) b3(g)
* 13. a2(r) b7(C)
* 14. d2(c) c1(G)
* 15. a7(n) a1(n)
* 16. c6(p) a8(P)
* 17. c4-d4 c5-c4
* 18. d4-d3 b6-b7
* 19. d3-d4 c6-b6
* 20. d4-d3 c4-d4
* 21. d3-d2 c3-c4
* 22. d2-d3 c4-c3
* 23. d3-d2 c3-c4
* 24. b5-c5 b3-c3
* 25. c5-b5 c3-b3
* 26. d2-d3 c4-c3
* 27. d3-d2 c3-c4
* 28. d2-d3 c4-c3
* 29. d3-d2 c3-c4
* 30. d2-d3 c4-c3
* 31. d3-d2 c3-c4
* PositionRepetitionDraw,3,4 a1_lightzero Draw 0.500000,0.500000
* Comment 0 0
0. 1771417288495
1. 1771417288495
2. 1771417289641
3. 1771417290589
4. 1771417291543
5. 1771417292493
6. 1771417293446
7. 1771417294395
8. 1771417295349
9. 1771417296299
10. 1771417297252
11. 1771417298201
12. 1771417299205
13. 1771417300204
14. 1771417301158
15. 1771417302158
16. 1771417303111
17. 1771417304062
18. 1771417305014
19. 1771417306015
20. 1771417307017
21. 1771417308019
22. 1771417308969
23. 1771417309972
24. 1771417310922
25. 1771417311925
26. 1771417312926
27. 1771417313928
28. 1771417314880
29. 1771417315881
30. 1771417316835
31. 1771417317835
32. 1771417318790
33. 1771417319788
34. 1771417320745
35. 1771417321742
36. 1771417322699
37. 1771417323696
38. 1771417324653
39. 1771417325648
40. 1771417326657
41. 1771417327601
42. 1771417328561
43. 1771417329556
44. 1771417330515
45. 1771417331510
46. 1771417332470
47. 1771417333463
48. 1771417334425
49. 1771417335467
50. 1771417336428
51. 1771417337472
52. 1771417338483
53. 1771417339527
54. 1771417340487
55. 1771417341480
56. 1771417342492
57. 1771417343535
58. 1771417344496
59. 1771417345539
60. 1771417346550
61. 1771417347593
62. 1771417348553
