INITIAL
* 7:33pm Feb 18, 2026
* a0_mu vs a1_lightzero
* 1 2 2 2 2 2 5 1 2 2 2 2 2 5
* X X X X
* X X X X
* X X X X
* X X X X
* X X X X
* X X X X
* X X X X
* X X X X
* first 1
* time 900
* 1. b1(k) b8(M)
* 2. c7(c) a4(n)
* 3. a6(p) d6(c)
* 4. d8(p) b2(m)
* 5. c8(g) d3(N)
* 6. a5(P) c2(K)
* 7. a7(P) d2(R)
* 8. c3(C) c5(r)
* 9. d7(m) c1(G)
* 10. b5(n) a3(p)
* 11. b6(P) a2(P)
* 12. a8(C) d5(P)
* 13. d1(p) c4(G)
* 14. a1(p) d4(g)
* 15. b7(R) c6(r)
* 16. b4(N) b3(M)
* 17. d4-d3 d5-d4
* 18. d3-c3 d4-d3
* 19. c6-b6 c4-d4
* 20. c3-c4 b3-c3
* 21. a3-b3 d4-d5
* 22. a4-a3 d5-d4
* 23. a3-a4 d4-d5
* 24. a4-a3 d5-d4
* 25. a3-a4 d4-d5
* 26. a4-a3 d5-d4
* 27. a3-a4
* PositionRepetitionDraw,3,4 a0_mu Draw 0.500000,0.500000
* Comment 0 0
0. 1771414419913
1. 1771414419913
2. 1771414421099
3. 1771414422059
4. 1771414423053
5. 1771414424014
6. 1771414425056
7. 1771414426019
8. 1771414427061
9. 1771414428025
10. 1771414429066
11. 1771414430031
12. 1771414431070
13. 1771414432036
14. 1771414433074
15. 1771414434041
16. 1771414435078
17. 1771414436047
18. 1771414437081
19. 1771414438052
20. 1771414439086
21. 1771414440057
22. 1771414441091
23. 1771414442063
24. 1771414443095
25. 1771414444068
26. 1771414445099
27. 1771414446074
28. 1771414447104
29. 1771414448130
30. 1771414449158
31. 1771414450134
32. 1771414451163
33. 1771414452138
34. 1771414453167
35. 1771414454141
36. 1771414455171
37. 1771414456144
38. 1771414457176
39. 1771414458147
40. 1771414459180
41. 1771414460151
42. 1771414461184
43. 1771414462154
44. 1771414463188
45. 1771414464157
46. 1771414465192
47. 1771414466160
48. 1771414467196
49. 1771414468164
50. 1771414469199
51. 1771414470168
52. 1771414471203
53. 1771414472173
