INITIAL
* 6:59pm Feb 18, 2026
* a1_lightzero vs a0_mu
* 1 2 2 2 2 2 5 1 2 2 2 2 2 5
* X X X X
* X X X X
* X X X X
* X X X X
* X X X X
* X X X X
* X X X X
* X X X X
* first 0
* time 900
* 1. b8(N) b1(K)
* 2. c7(C) a6(R)
* 3. a4(m) b5(p)
* 4. b2(p) d6(R)
* 5. d7(n) c5(c)
* 6. d3(N) a5(M)
* 7. b6(g) a3(P)
* 8. d1(p) c2(k)
* 9. d8(n) c8(m)
* 10. d2(c) c1(M)
* 11. d5(P) c3(g)
* 12. c4(r) a8(P)
* 13. a1(p) b4(C)
* 14. d4(G) b7(p)
* 15. c6(P) a4-a3
* 16. b3(G) c3-d3
* 17. a2(P) c4-c3
* 18. a7(r) c5-c4
* 19. a5-a4 c4-c5
* 20. d4-c4 a1-a2
* 21. c4-d4 a2-a1
* 22. d4-c4 a1-a2
* 23. c4-d4 a2-a1
* 24. d4-c4 a1-a2
* 25. c4-d4 a2-a1
* 26. a4-a5 a1-a2
* 27. b1-a1 c5-c4
* 28. c1-b1 c4-c5
* 29. d4-c4 a2-a1
* 30. c4-d4 a1-a2
* 31. b1-a1 c5-c4
* 32. a1-b1 a2-a1
* 33. b1-c1 a1-a2
* 34. c1-b1 a2-a1
* 35. b1-c1 a1-a2
* 36. c1-b1 a2-a1
* 37. b1-c1 a1-a2
* 38. c1-b1
* PositionRepetitionDraw,3,4 a1_lightzero Draw 0.500000,0.500000
* Comment 0 0
0. 1771412398518
1. 1771412398518
2. 1771412399615
3. 1771412400613
4. 1771412401570
5. 1771412402516
6. 1771412403476
7. 1771412404521
8. 1771412405482
9. 1771412406477
10. 1771412407438
11. 1771412408433
12. 1771412409393
13. 1771412410387
14. 1771412411346
15. 1771412412343
16. 1771412413300
17. 1771412414297
18. 1771412415253
19. 1771412416251
20. 1771412417206
21. 1771412418206
22. 1771412419160
23. 1771412420160
24. 1771412421164
25. 1771412422164
26. 1771412423169
27. 1771412424168
28. 1771412425124
29. 1771412426122
30. 1771412427078
31. 1771412428026
32. 1771412428982
33. 1771412429980
34. 1771412430936
35. 1771412431884
36. 1771412432839
37. 1771412433788
38. 1771412434743
39. 1771412435742
40. 1771412436696
41. 1771412437646
42. 1771412438599
43. 1771412439550
44. 1771412440503
45. 1771412441505
46. 1771412442457
47. 1771412443409
48. 1771412444410
49. 1771412445363
50. 1771412446365
51. 1771412447367
52. 1771412448369
53. 1771412449371
54. 1771412450373
55. 1771412451376
56. 1771412452378
57. 1771412453381
58. 1771412454332
59. 1771412455335
60. 1771412456286
61. 1771412457288
62. 1771412458239
63. 1771412459242
64. 1771412460192
65. 1771412461195
66. 1771412462145
67. 1771412463148
68. 1771412464099
69. 1771412465101
70. 1771412466052
71. 1771412467054
72. 1771412468056
73. 1771412469058
74. 1771412470009
75. 1771412471012
