INITIAL
* 7:8pm Feb 18, 2026
* a1_lightzero vs a0_mu
* 1 2 2 2 2 2 5 1 2 2 2 2 2 5
* X X X X
* X X X X
* X X X X
* X X X X
* X X X X
* X X X X
* X X X X
* X X X X
* first 1
* time 900
* 1. b8(m) b1(R)
* 2. a4(p) c7(c)
* 3. d7(p) a6(G)
* 4. d3(N) d8(N)
* 5. b2(p) c8(P)
* 6. c5(R) a5(K)
* 7. d2(m) d6(g)
* 8. a1(n) c3(r)
* 9. d1(n) a3(c)
* 10. d5(P) b6(C)
* 11. b7(P) c6(p)
* 12. a8(P) d4(M)
* 13. c2(k) b4(M)
* 14. a7(C) b3(r)
* 15. c4(G) c1(P)
* 16. a2(p) b5(g)
* 17. d2-d3 b4-a4
* 18. d1-d2 a4-b4
* 19. d2-d1 b4-a4
* 20. d1-d2 a4-b4
* 21. d2-d1 b4-a4
* 22. d1-d2 a4-b4
* 23. d2-d1 b4-a4
* PositionRepetitionDraw,3,4 a1_lightzero Draw 0.500000,0.500000
* Comment 0 0
0. 1771412912219
1. 1771412912219
2. 1771412913403
3. 1771412914365
4. 1771412915357
5. 1771412916371
6. 1771412917411
7. 1771412918377
8. 1771412919365
9. 1771412920383
10. 1771412921369
11. 1771412922390
12. 1771412923423
13. 1771412924444
14. 1771412925477
15. 1771412926499
16. 1771412927482
17. 1771412928503
18. 1771412929485
19. 1771412930507
20. 1771412931489
21. 1771412932511
22. 1771412933543
23. 1771412934565
24. 1771412935597
25. 1771412936618
26. 1771412937602
27. 1771412938621
28. 1771412939605
29. 1771412940626
30. 1771412941608
31. 1771412942630
32. 1771412943611
33. 1771412944634
34. 1771412945616
35. 1771412946638
36. 1771412947670
37. 1771412948692
38. 1771412949724
39. 1771412950747
40. 1771412951779
41. 1771412952801
42. 1771412953782
43. 1771412954805
44. 1771412955786
45. 1771412956809
46. 1771412957790
