INITIAL
* 7:28pm Feb 18, 2026
* a1_lightzero vs a0_mu
* 1 2 2 2 2 2 5 1 2 2 2 2 2 5
* X X X X
* X X X X
* X X X X
* X X X X
* X X X X
* X X X X
* X X X X
* X X X X
* first 1
* time 900
* 1. b8(c) b1(P)
* 2. c7(p) b5(g)
* 3. a4(k) a7(N)
* 4. b2(P) a6(r)
* 5. d8(G) c3(G)
* 6. b3(K) c5(c)
* 7. a5(P) d2(P)
* 8. b4(C) c4(p)
* 9. c1(n) b7(p)
* 10. d3(p) c6(g)
* 11. a1(M) b6(R)
* 12. d7(m) c2(R)
* 13. d6(n) d4(M)
* 14. a8(m) a3(C)
* 15. a2(r) c8(N)
* 16. d1(P) a1-a2
* 17. d5(p) d4-c4
* 18. d3-d4 b6-b7
* 19. b5-b6 a5-b5
* 20. a6-a5 a7-a6
* 21. a8-a7 b7-c7
* 22. a7-a8 a6-a7
* 23. a5-a6 a7-b7
* 24. a8-a7 b7-b8
* 25. a4-a5 a2-a1
* 26. a5-a4 a1-a2
* 27. a4-a5 a2-a1
* 28. a5-a4 a1-a2
* 29. a4-a5 a2-a1
* 30. a5-a4 a1-a2
* PositionRepetitionDraw,3,4 a1_lightzero Draw 0.500000,0.500000
* Comment 0 0
0. 1771414101889
1. 1771414101889
2. 1771414103028
3. 1771414103984
4. 1771414104932
5. 1771414105887
6. 1771414106836
7. 1771414107842
8. 1771414108790
9. 1771414109746
10. 1771414110694
11. 1771414111651
12. 1771414112597
13. 1771414113606
14. 1771414114551
15. 1771414115511
16. 1771414116505
17. 1771414117516
18. 1771414118509
19. 1771414119521
20. 1771414120513
21. 1771414121526
22. 1771414122569
23. 1771414123580
24. 1771414124573
25. 1771414125585
26. 1771414126577
27. 1771414127590
28. 1771414128582
29. 1771414129594
30. 1771414130585
31. 1771414131598
32. 1771414132588
33. 1771414133552
34. 1771414134542
35. 1771414135506
36. 1771414136496
37. 1771414137459
38. 1771414138449
39. 1771414139413
40. 1771414140404
41. 1771414141417
42. 1771414142407
43. 1771414143421
44. 1771414144410
45. 1771414145424
46. 1771414146413
47. 1771414147428
48. 1771414148416
49. 1771414149432
50. 1771414150419
51. 1771414151436
52. 1771414152423
53. 1771414153439
54. 1771414154427
55. 1771414155443
56. 1771414156431
57. 1771414157446
58. 1771414158435
59. 1771414159450
60. 1771414160439
