INITIAL
* 8:14pm Feb 18, 2026
* a0_mu vs a1_lightzero
* 1 2 2 2 2 2 5 1 2 2 2 2 2 5
* X X X X
* X X X X
* X X X X
* X X X X
* X X X X
* X X X X
* X X X X
* X X X X
* first 1
* time 900
* 1. b1(k) b8(P)
* 2. b5(c) c7(p)
* 3. a7(G) d3(c)
* 4. a6(M) d1(g)
* 5. a4(g) d7(p)
* 6. c8(p) d6(P)
* 7. a5(m) b6(r)
* 8. c5(R) c2(C)
* 9. d8(P) d2(n)
* 10. a3(m) c3(M)
* 11. b2(P) d5(C)
* 12. a8(p) b7(n)
* 13. b3(P) d4(K)
* 14. c6(R) d8-c8
* 15. b4(N) a2(p)
* 16. d7-d8 a1(G)
* 17. c7-d7 c4(r)
* 18. d7-c7 a7-b7
* 19. a8-a7 a1-a2
* 20. d8-d7 a2-a1
* 21. d7-d8 a1-a2
* 22. d8-d7 a2-a1
* 23. d7-d8 a1-a2
* 24. d8-d7 a2-a1
* 25. d7-d8 a1-a2
* PositionRepetitionDraw,3,4 a0_mu Draw 0.500000,0.500000
* Comment 0 0
0. 1771416877358
1. 1771416877358
2. 1771416878550
3. 1771416879504
4. 1771416880503
5. 1771416881459
6. 1771416882457
7. 1771416883415
8. 1771416884411
9. 1771416885370
10. 1771416886365
11. 1771416887325
12. 1771416888319
13. 1771416889280
14. 1771416890323
15. 1771416891286
16. 1771416892327
17. 1771416893291
18. 1771416894331
19. 1771416895296
20. 1771416896335
21. 1771416897351
22. 1771416898387
23. 1771416899356
24. 1771416900392
25. 1771416901361
26. 1771416902396
27. 1771416903367
28. 1771416904399
29. 1771416905372
30. 1771416906402
31. 1771416907377
32. 1771416908406
33. 1771416909383
34. 1771416910409
35. 1771416911388
36. 1771416912412
37. 1771416913393
38. 1771416914415
39. 1771416915399
40. 1771416916419
41. 1771416917404
42. 1771416918423
43. 1771416919410
44. 1771416920426
45. 1771416921465
46. 1771416922480
47. 1771416923470
48. 1771416924484
49. 1771416925473
50. 1771416926486
