INITIAL
* 8:22pm Feb 18, 2026
* a0_mu vs a1_lightzero
* 1 2 2 2 2 2 5 1 2 2 2 2 2 5
* X X X X
* X X X X
* X X X X
* X X X X
* X X X X
* X X X X
* X X X X
* X X X X
* first 1
* time 900
* 1. b1(c) b8(k)
* 2. c7(C) a4(r)
* 3. a6(N) b2(g)
* 4. b5(P) d3(p)
* 5. d6(P) d7(c)
* 6. c8(P) b6(g)
* 7. a3(n) d1(r)
* 8. a7(m) b3(R)
* 9. d4(C) a1(n)
* 10. c5(R) a5(G)
* 11. c4(p) d2(M)
* 12. c1(P) b7(N)
* 13. d8(K) c2(G)
* 14. a8(m) d5(p)
* 15. b4(p) a2(P)
* 16. c3(M) c6(p)
* 17. b6-b5 c5-c6
* 18. b5-b6 a5-b5
* 19. b6-b7 b5-b6
* 20. b7-c7 b6-b7
* 21. c7-b7 a6-b6
* 22. b7-c7 b6-a6
* 23. c7-b7 a6-b6
* 24. b7-c7 b6-a6
* 25. c7-b7 a6-b6
* 26. b7-c7 b6-a6
* 27. c7-b7
* PositionRepetitionDraw,3,4 a0_mu Draw 0.500000,0.500000
* Comment 0 0
0. 1771417359222
1. 1771417359222
2. 1771417360318
3. 1771417361268
4. 1771417362273
5. 1771417363223
6. 1771417364227
7. 1771417365179
8. 1771417366130
9. 1771417367084
10. 1771417368034
11. 1771417368987
12. 1771417369988
13. 1771417370941
14. 1771417371890
15. 1771417372845
16. 1771417373843
17. 1771417374799
18. 1771417375796
19. 1771417376753
20. 1771417377750
21. 1771417378708
22. 1771417379705
23. 1771417380661
24. 1771417381657
25. 1771417382665
26. 1771417383660
27. 1771417384619
28. 1771417385613
29. 1771417386572
30. 1771417387566
31. 1771417388526
32. 1771417389569
33. 1771417390530
34. 1771417391571
35. 1771417392533
36. 1771417393573
37. 1771417394538
38. 1771417395576
39. 1771417396542
40. 1771417397579
41. 1771417398547
42. 1771417399582
43. 1771417400553
44. 1771417401535
45. 1771417402506
46. 1771417403539
47. 1771417404512
48. 1771417405493
49. 1771417406467
50. 1771417407496
51. 1771417408473
52. 1771417409449
53. 1771417410426
