INITIAL
* 8:12pm Feb 18, 2026
* a1_lightzero vs a0_mu
* 1 2 2 2 2 2 5 1 2 2 2 2 2 5
* X X X X
* X X X X
* X X X X
* X X X X
* X X X X
* X X X X
* X X X X
* X X X X
* first 0
* time 900
* 1. b8(N) b1(c)
* 2. a4(g) c7(n)
* 3. b2(r) a6(P)
* 4. d6(p) b5(p)
* 5. d7(R) c8(G)
* 6. d3(P) c1(m)
* 7. a3(p) b3(N)
* 8. d1(m) d2(M)
* 9. b4(M) d4(n)
* 10. a1(k) a5(P)
* 11. d5(P) a7(c)
* 12. a8(C) b6(K)
* 13. b7(C) c2(R)
* 14. c4(p) c3(P)
* 15. c6(G) c5(r)
* 16. a2(p) d8(g)
* 17. c6-c7 c5-c6
* 18. d5-c5 c1-c2
* 19. c5-d5 c6-c5
* 20. b6-c6 a4-b4
* 21. d7-d6 b4-a4
* 22. b3-b4 d8-d7
* 23. b4-b3 a4-b4
* 24. c8-d8 b4-a4
* 25. d8-c8 a4-b4
* 26. c8-d8 b4-a4
* 27. b3-b4 a4-b4
* 28. d8-c8 b4-b3
* 29. a5-a4 d7-d8
* 30. a4-b4 b5-b6
* 31. b4-b5 c5-d5
* 32. d6-d7 c4-b4
* 33. b5-a5 d4-c4
* 34. d7-d6 c4-d4
* 35. d6-d7 d4-c4
* 36. d7-d6 c4-d4
* 37. d6-d7 d4-c4
* 38. d7-d6 c4-c5
* 39. d6-d7 c5-b5
* 40. d7-d6 b4-c4
* 41. d6-d7 b5-b4
* 42. d7-d6 c4-d4
* 43. d6-d7 d4-c4
* 44. d7-d6 c4-d4
* 45. d6-d7 d4-c4
* 46. d7-d6 c4-d4
* 47. d6-d7 d4-c4
* PositionRepetitionDraw,3,4 a1_lightzero Draw 0.500000,0.500000
* Comment 0 0
0. 1771416773423
1. 1771416773423
2. 1771416774558
3. 1771416775568
4. 1771416776514
5. 1771416777520
6. 1771416778469
7. 1771416779473
8. 1771416780424
9. 1771416781426
10. 1771416782380
11. 1771416783380
12. 1771416784335
13. 1771416785333
14. 1771416786290
15. 1771416787288
16. 1771416788296
17. 1771416789291
18. 1771416790251
19. 1771416791245
20. 1771416792207
21. 1771416793247
22. 1771416794211
23. 1771416795250
24. 1771416796215
25. 1771416797253
26. 1771416798219
27. 1771416799257
28. 1771416800224
29. 1771416801260
30. 1771416802228
31. 1771416803264
32. 1771416804282
33. 1771416805319
34. 1771416806337
35. 1771416807373
36. 1771416808341
37. 1771416809378
38. 1771416810345
39. 1771416811381
40. 1771416812398
41. 1771416813434
42. 1771416814402
43. 1771416815438
44. 1771416816406
45. 1771416817442
46. 1771416818410
47. 1771416819445
48. 1771416820413
49. 1771416821448
50. 1771416822416
51. 1771416823451
52. 1771416824419
53. 1771416825454
54. 1771416826422
55. 1771416827456
56. 1771416828424
57. 1771416829459
58. 1771416830427
59. 1771416831462
60. 1771416832429
61. 1771416833464
62. 1771416834433
63. 1771416835468
64. 1771416836437
65. 1771416837472
66. 1771416838441
67. 1771416839475
68. 1771416840444
69. 1771416841479
70. 1771416842498
71. 1771416843533
72. 1771416844502
73. 1771416845538
74. 1771416846506
75. 1771416847541
76. 1771416848509
77. 1771416849546
78. 1771416850513
79. 1771416851549
80. 1771416852515
81. 1771416853553
82. 1771416854568
83. 1771416855608
84. 1771416856571
85. 1771416857612
86. 1771416858575
87. 1771416859616
88. 1771416860578
89. 1771416861620
90. 1771416862631
91. 1771416863673
92. 1771416864634
93. 1771416865678
94. 1771416866638
