INITIAL
* 8:2pm Feb 18, 2026
* a0_mu vs a1_lightzero
* 1 2 2 2 2 2 5 1 2 2 2 2 2 5
* X X X X
* X X X X
* X X X X
* X X X X
* X X X X
* X X X X
* X X X X
* X X X X
* first 1
* time 900
* 1. b1(m) b8(n)
* 2. c7(K) a4(M)
* 3. a6(N) d3(k)
* 4. b5(P) b2(p)
* 5. d6(R) d7(g)
* 6. c5(P) d1(M)
* 7. a7(P) b3(G)
* 8. d4(r) d8(R)
* 9. c8(n) a5(p)
* 10. c4(p) d2(p)
* 11. a8(P) d5(r)
* 12. b6(G) c1(g)
* 13. a1(m) a3(p)
* 14. b4(P) c2(c)
* 15. c3(c) c6(C)
* 16. b7(N) a2(C)
* 17. a1-a2 a4-a3
* 18. a2-a1 d1-d2
* 19. c1-d1 a3-a2
* 20. d1-c1 d2-d1
* 21. a5-a4 d1-d2
* 22. c1-d1 b3-a3
* 23. d1-c1 d2-d1
* 24. d7-d8 d1-d2
* 25. c1-d1 d6-d7
* 26. d1-c1 d2-d1
* 27. a4-a5 d1-d2
* 28. c1-d1 a3-b3
* 29. d1-c1 d2-d1
* 30. c1-d1 b3-a3
* 31. a5-a4 a3-b3
* 32. a4-a3 d7-d6
* 33. d8-d7 b3-c3
* 34. a3-b3 c3-b3
* 35. d7-d8 d6-d7
* 36. a1-a2 b3-c3
* 37. a2-a1 c3-b3
* 38. a1-a2 b3-c3
* 39. a2-a1 c3-b3
* 40. a1-a2 b3-c3
* 41. a2-a1 c3-b3
* 42. a1-a2
* PositionRepetitionDraw,3,4 a0_mu Draw 0.500000,0.500000
* Comment 0 0
0. 1771416151880
1. 1771416151880
2. 1771416153063
3. 1771416154024
4. 1771416155065
5. 1771416156027
6. 1771416157067
7. 1771416158030
8. 1771416159070
9. 1771416160034
10. 1771416161072
11. 1771416162037
12. 1771416163074
13. 1771416164040
14. 1771416165077
15. 1771416166043
16. 1771416167081
17. 1771416168047
18. 1771416169084
19. 1771416170050
20. 1771416171088
21. 1771416172053
22. 1771416173092
23. 1771416174057
24. 1771416175095
25. 1771416176061
26. 1771416177098
27. 1771416178115
28. 1771416179152
29. 1771416180119
30. 1771416181156
31. 1771416182122
32. 1771416183160
33. 1771416184126
34. 1771416185163
35. 1771416186130
36. 1771416187167
37. 1771416188134
38. 1771416189170
39. 1771416190138
40. 1771416191174
41. 1771416192141
42. 1771416193177
43. 1771416194146
44. 1771416195181
45. 1771416196150
46. 1771416197185
47. 1771416198153
48. 1771416199188
49. 1771416200158
50. 1771416201192
51. 1771416202161
52. 1771416203196
53. 1771416204164
54. 1771416205199
55. 1771416206218
56. 1771416207251
57. 1771416208221
58. 1771416209254
59. 1771416210274
60. 1771416211307
61. 1771416212327
62. 1771416213410
63. 1771416214381
64. 1771416215465
65. 1771416216484
66. 1771416217518
67. 1771416218536
68. 1771416219571
69. 1771416220538
70. 1771416221573
71. 1771416222591
72. 1771416223626
73. 1771416224594
74. 1771416225629
75. 1771416226597
76. 1771416227632
77. 1771416228600
78. 1771416229634
79. 1771416230653
80. 1771416231688
81. 1771416232705
82. 1771416233790
83. 1771416234759
