INITIAL
* 8:6pm Feb 18, 2026
* a1_lightzero vs a0_mu
* 1 2 2 2 2 2 5 1 2 2 2 2 2 5
* X X X X
* X X X X
* X X X X
* X X X X
* X X X X
* X X X X
* X X X X
* X X X X
* first 1
* time 900
* 1. b8(c) b1(p)
* 2. c7(R) a6(g)
* 3. a4(c) b5(R)
* 4. d3(r) a7(C)
* 5. b2(P) d6(p)
* 6. d7(N) c8(p)
* 7. d1(G) c5(n)
* 8. d5(C) d8(N)
* 9. a5(p) c3(P)
* 10. b7(n) c2(M)
* 11. d2(M) a3(K)
* 12. c4(r) d4(P)
* 13. b6(G) a1(m)
* 14. a8(m) c1(k)
* 15. c6(p) b4(P)
* 16. a2(g) b3(P)
* 17. a8-a7 b5-a5
* 18. c5-b5 b6-b7
* 19. b5-c5 b7-b6
* 20. b8-b7 a5-b5
* 21. a6-a5 b6-a6
* 22. a7-a8 a6-b6
* 23. a8-b8 b6-a6
* 24. b8-a8 a6-b6
* 25. a8-b8 b6-a6
* 26. b8-a8 a6-b6
* 27. a8-b8 b6-a6
* 28. b8-a8
* PositionRepetitionDraw,3,4 a1_lightzero Draw 0.500000,0.500000
* Comment 0 0
0. 1771416386073
1. 1771416386073
2. 1771416387205
3. 1771416388169
4. 1771416389158
5. 1771416390124
6. 1771416391112
7. 1771416392079
8. 1771416393065
9. 1771416394085
10. 1771416395069
11. 1771416396042
12. 1771416397022
13. 1771416398046
14. 1771416399027
15. 1771416400052
16. 1771416401031
17. 1771416402058
18. 1771416403084
19. 1771416404114
20. 1771416405088
21. 1771416406119
22. 1771416407142
23. 1771416408173
24. 1771416409146
25. 1771416410176
26. 1771416411200
27. 1771416412229
28. 1771416413205
29. 1771416414233
30. 1771416415209
31. 1771416416237
32. 1771416417213
33. 1771416418192
34. 1771416419167
35. 1771416420196
36. 1771416421172
37. 1771416422199
38. 1771416423177
39. 1771416424201
40. 1771416425233
41. 1771416426255
42. 1771416427238
43. 1771416428257
44. 1771416429242
45. 1771416430261
46. 1771416431248
47. 1771416432265
48. 1771416433253
49. 1771416434268
50. 1771416435257
51. 1771416436272
52. 1771416437261
53. 1771416438276
54. 1771416439315
55. 1771416440330
