INITIAL
* 7:31pm Feb 18, 2026
* a0_mu vs a1_lightzero
* 1 2 2 2 2 2 5 1 2 2 2 2 2 5
* X X X X
* X X X X
* X X X X
* X X X X
* X X X X
* X X X X
* X X X X
* X X X X
* first 0
* time 900
* 1. b1(P) b8(p)
* 2. c7(r) a4(p)
* 3. a6(G) d3(N)
* 4. b5(g) b2(g)
* 5. d6(R) d7(p)
* 6. a5(r) b6(m)
* 7. a3(M) d1(P)
* 8. c8(R) d5(c)
* 9. b3(P) b4(n)
* 10. a8(N) a1(p)
* 11. d4(G) c6(P)
* 12. b7(P) a7(M)
* 13. d2(C) c1(c)
* 14. c5(C) c3(p)
* 15. c2(K) d8(n)
* 16. c8-d8 a2(m)
* 17. a3-a4 c4(k)
* 18. a4-a3 b8-b7
* 19. a8-b8 b4-a4
* 20. d8-c8 a4-b4
* 21. c8-d8 b4-a4
* 22. d8-c8 a4-b4
* 23. c8-d8 b4-a4
* 24. d8-c8 a4-b4
* 25. c8-d8
* PositionRepetitionDraw,3,4 a0_mu Draw 0.500000,0.500000
* Comment 0 0
0. 1771414306927
1. 1771414306927
2. 1771414308112
3. 1771414309073
4. 1771414310117
5. 1771414311077
6. 1771414312071
7. 1771414313031
8. 1771414314026
9. 1771414314985
10. 1771414315931
11. 1771414316889
12. 1771414317887
13. 1771414318844
14. 1771414319793
15. 1771414320748
16. 1771414321748
17. 1771414322702
18. 1771414323703
19. 1771414324654
20. 1771414325657
21. 1771414326608
22. 1771414327612
23. 1771414328562
24. 1771414329566
25. 1771414330515
26. 1771414331471
27. 1771414332420
28. 1771414333426
29. 1771414334422
30. 1771414335432
31. 1771414336376
32. 1771414337387
33. 1771414338380
34. 1771414339393
35. 1771414340385
36. 1771414341348
37. 1771414342338
38. 1771414343353
39. 1771414344342
40. 1771414345309
41. 1771414346295
42. 1771414347314
43. 1771414348298
44. 1771414349269
45. 1771414350253
46. 1771414351274
47. 1771414352257
48. 1771414353279
49. 1771414354261
