INITIAL
* 7:29pm Feb 18, 2026
* a0_mu vs a1_lightzero
* 1 2 2 2 2 2 5 1 2 2 2 2 2 5
* X X X X
* X X X X
* X X X X
* X X X X
* X X X X
* X X X X
* X X X X
* X X X X
* first 0
* time 900
* 1. b1(R) b8(P)
* 2. b5(k) a4(g)
* 3. a7(N) b2(P)
* 4. a5(P) c7(K)
* 5. c5(c) a6(C)
* 6. d6(M) d2(m)
* 7. c3(R) d8(G)
* 8. d7(p) a1(c)
* 9. c8(m) d1(P)
* 10. b6(r) d3(P)
* 11. a3(p) d5(r)
* 12. b3(n) c6(p)
* 13. c1(C) b7(p)
* 14. c2(p) d4(G)
* 15. a8(M) c4(g)
* 16. b4(n) a2(N)
* 17. a2-a3 d2-d1
* 18. d3-d2 d1-c1
* 19. b2-a2 c1-d1
* 20. b1-c1 a1-b1
* 21. a2-b2 d1-d2
* 22. c1-d1 d2-d3
* 23. b2-a2 d3-d2
* 24. a2-a1 d2-d3
* 25. a1-a2 d3-d2
* 26. a2-a1 d2-d3
* 27. a1-a2 b1-b2
* 28. a2-a1 d3-d2
* 29. a1-b1 d2-d3
* 30. b1-c1 d3-d2
* 31. c1-b1 d2-d3
* 32. b1-c1 d3-d2
* 33. c1-b1 d2-d3
* 34. b1-c1 d3-d2
* 35. c1-b1
* PositionRepetitionDraw,3,4 a0_mu Draw 0.500000,0.500000
* Comment 0 0
0. 1771414171078
1. 1771414171078
2. 1771414172265
3. 1771414173224
4. 1771414174220
5. 1771414175180
6. 1771414176176
7. 1771414177136
8. 1771414178131
9. 1771414179091
10. 1771414180087
11. 1771414181045
12. 1771414182042
13. 1771414182998
14. 1771414183997
15. 1771414184952
16. 1771414185952
17. 1771414186907
18. 1771414187908
19. 1771414188860
20. 1771414189864
21. 1771414190814
22. 1771414191818
23. 1771414192768
24. 1771414193774
25. 1771414194723
26. 1771414195729
27. 1771414196726
28. 1771414197734
29. 1771414198680
30. 1771414199689
31. 1771414200633
32. 1771414201644
33. 1771414202587
34. 1771414203598
35. 1771414204542
36. 1771414205552
37. 1771414206498
38. 1771414207557
39. 1771414208503
40. 1771414209510
41. 1771414210458
42. 1771414211464
43. 1771414212414
44. 1771414213417
45. 1771414214369
46. 1771414215371
47. 1771414216322
48. 1771414217325
49. 1771414218276
50. 1771414219279
51. 1771414220229
52. 1771414221234
53. 1771414222183
54. 1771414223188
55. 1771414224187
56. 1771414225191
57. 1771414226141
58. 1771414227144
59. 1771414228096
60. 1771414229098
61. 1771414230050
62. 1771414231052
63. 1771414232004
64. 1771414233006
65. 1771414233958
66. 1771414234959
67. 1771414235912
68. 1771414236913
69. 1771414237866
