INITIAL
* 7:18pm Feb 18, 2026
* a0_mu vs a1_lightzero
* 1 2 2 2 2 2 5 1 2 2 2 2 2 5
* X X X X
* X X X X
* X X X X
* X X X X
* X X X X
* X X X X
* X X X X
* X X X X
* first 0
* time 900
* 1. b1(C) b8(r)
* 2. c7(c) a4(P)
* 3. a6(G) b2(P)
* 4. b5(g) d8(C)
* 5. a7(G) d2(p)
* 6. c3(r) d3(m)
* 7. c6(p) a1(M)
* 8. b6(n) d7(p)
* 9. a3(N) d6(P)
* 10. c5(g) d1(R)
* 11. c8(n) b7(K)
* 12. c4(N) a5(R)
* 13. d4(p) d5(P)
* 14. c2(c) c1(m)
* 15. a8(P) a2(M)
* 16. b4(p) b3(k)
* 17. c4-d4 c5-c4
* 18. d6-d7 b5-c5
* 19. b7-b6 c5-b5
* 20. d7-d6 b5-c5
* 21. d6-d7 c5-b5
* 22. d7-d6 b5-c5
* 23. d6-d7 c5-b5
* 24. d7-d6 b5-c5
* 25. d6-d7
* PositionRepetitionDraw,3,4 a0_mu Draw 0.500000,0.500000
* Comment 0 0
0. 1771413529578
1. 1771413529578
2. 1771413530760
3. 1771413531725
4. 1771413532764
5. 1771413533730
6. 1771413534768
7. 1771413535735
8. 1771413536771
9. 1771413537738
10. 1771413538776
11. 1771413539742
12. 1771413540780
13. 1771413541746
14. 1771413542784
15. 1771413543750
16. 1771413544788
17. 1771413545754
18. 1771413546843
19. 1771413547858
20. 1771413548897
21. 1771413549863
22. 1771413550902
23. 1771413551867
24. 1771413552906
25. 1771413553871
26. 1771413554909
27. 1771413555875
28. 1771413556913
29. 1771413557880
30. 1771413558917
31. 1771413559885
32. 1771413560921
33. 1771413561891
34. 1771413562925
35. 1771413563896
36. 1771413564930
37. 1771413565901
38. 1771413566934
39. 1771413567906
40. 1771413568938
41. 1771413569911
42. 1771413570942
43. 1771413571917
44. 1771413572997
45. 1771413573972
46. 1771413575001
47. 1771413575978
48. 1771413577006
49. 1771413577984
