INITIAL
* 6:58pm Feb 18, 2026
* a0_mu vs a1_lightzero
* 1 2 2 2 2 2 5 1 2 2 2 2 2 5
* X X X X
* X X X X
* X X X X
* X X X X
* X X X X
* X X X X
* X X X X
* X X X X
* first 0
* time 900
* 1. b1(P) b8(P)
* 2. b5(p) a4(N)
* 3. a7(M) c7(R)
* 4. a6(g) b2(c)
* 5. a5(M) d2(N)
* 6. d6(p) d3(G)
* 7. d8(K) a1(P)
* 8. c3(r) d7(n)
* 9. c8(g) d1(P)
* 10. c6(p) b7(r)
* 11. a3(C) d5(k)
* 12. b6(G) a8(n)
* 13. c4(p) c5(c)
* 14. c2(R) a8-b8
* 15. d4(m) c1(p)
* 16. b4(C) a2(m)
* 17. c7-d7 b3(P)
* 18. d7-c7 a2-a3
* 19. a1-a2 b8-a8
* 20. a2-a1 a8-b8
* 21. a1-a2 b8-a8
* 22. a2-a1 a8-b8
* 23. a1-a2 b8-a8
* 24. a2-a1 a8-b8
* PositionRepetitionDraw,3,4 a0_mu Draw 0.500000,0.500000
* Comment 0 0
0. 1771412340865
1. 1771412340865
2. 1771412342052
3. 1771412343011
4. 1771412344008
5. 1771412344965
6. 1771412345964
7. 1771412346919
8. 1771412347919
9. 1771412348873
10. 1771412349875
11. 1771412350826
12. 1771412351830
13. 1771412352779
14. 1771412353786
15. 1771412354733
16. 1771412355741
17. 1771412356686
18. 1771412357696
19. 1771412358640
20. 1771412359650
21. 1771412360644
22. 1771412361654
23. 1771412362598
24. 1771412363659
25. 1771412364651
26. 1771412365664
27. 1771412366705
28. 1771412367717
29. 1771412368707
30. 1771412369720
31. 1771412370712
32. 1771412371724
33. 1771412372715
34. 1771412373728
35. 1771412374719
36. 1771412375732
37. 1771412376723
38. 1771412377736
39. 1771412378728
40. 1771412379740
41. 1771412380732
42. 1771412381744
43. 1771412382786
44. 1771412383798
45. 1771412384791
46. 1771412385802
47. 1771412386795
48. 1771412387806
