INITIAL
* 7:25pm Feb 18, 2026
* a0_mu vs a1_lightzero
* 1 2 2 2 2 2 5 1 2 2 2 2 2 5
* X X X X
* X X X X
* X X X X
* X X X X
* X X X X
* X X X X
* X X X X
* X X X X
* first 0
* time 900
* 1. b1(P) b8(p)
* 2. c7(g) a4(K)
* 3. a6(P) d3(c)
* 4. b5(C) d7(n)
* 5. c2(N) d6(G)
* 6. d8(P) d1(M)
* 7. d2(p) a5(p)
* 8. a3(M) d5(n)
* 9. b6(g) b2(k)
* 10. c8(m) c4(P)
* 11. a7(m) b3(r)
* 12. a1(N) c6(R)
* 13. c5(G) b7(R)
* 14. c3(r) d4(p)
* 15. a8(P) c1(c)
* 16. b4(C) a2(p)
* 17. d1-d2 a7-a6
* 18. a1-a2 a6-a7
* 19. a2-a1 a7-a6
* 20. a1-a2 a6-a7
* 21. a2-a1 a7-a6
* 22. a1-a2 a6-a7
* 23. a2-a1 a7-a6
* 24. a1-a2
* PositionRepetitionDraw,3,4 a0_mu Draw 0.500000,0.500000
* Comment 0 0
0. 1771413927648
1. 1771413927648
2. 1771413928835
3. 1771413929794
4. 1771413930739
5. 1771413931698
6. 1771413932643
7. 1771413933601
8. 1771413934547
9. 1771413935504
10. 1771413936500
11. 1771413937456
12. 1771413938454
13. 1771413939409
14. 1771413940408
15. 1771413941362
16. 1771413942361
17. 1771413943314
18. 1771413944314
19. 1771413945266
20. 1771413946268
21. 1771413947219
22. 1771413948271
23. 1771413949223
24. 1771413950225
25. 1771413951175
26. 1771413952179
27. 1771413953129
28. 1771413954132
29. 1771413955132
30. 1771413956185
31. 1771413957185
32. 1771413958189
33. 1771413959137
34. 1771413960142
35. 1771413961089
36. 1771413962094
37. 1771413963041
38. 1771413964047
39. 1771413964994
40. 1771413965950
41. 1771413966896
42. 1771413967853
43. 1771413968848
44. 1771413969805
45. 1771413970751
46. 1771413971708
47. 1771413972654
