INITIAL
* 8:37pm Feb 18, 2026
* a1_lightzero vs a0_mu
* 1 2 2 2 2 2 5 1 2 2 2 2 2 5
* X X X X
* X X X X
* X X X X
* X X X X
* X X X X
* X X X X
* X X X X
* X X X X
* first 1
* time 900
* 1. b8(k) b1(R)
* 2. c7(N) a6(m)
* 3. a4(C) b5(R)
* 4. b2(P) d6(M)
* 5. d3(g) c2(n)
* 6. d8(K) a7(r)
* 7. d7(c) c8(g)
* 8. d2(C) c5(G)
* 9. a5(m) a8(P)
* 10. c1(r) c3(p)
* 11. b7(P) d1(n)
* 12. d5(c) a2(N)
* 13. b3(P) d4(p)
* 14. a1(G) b6(p)
* 15. a3(p) c4(p)
* 16. c6(M) b4(P)
* 17. d3-d2 c5-d5
* 18. d2-d3 b5-c5
* 19. a5-b5 a4-a5
* 20. d1-d2 b4-a4
* 21. c1-d1 a4-b4
* 22. d1-c1 b4-a4
* 23. c1-d1 a4-b4
* 24. d1-c1 b4-a4
* 25. c1-d1 a4-b4
* 26. d1-c1
* PositionRepetitionDraw,3,4 a1_lightzero Draw 0.500000,0.500000
* Comment 0 0
0. 1771418233935
1. 1771418233935
2. 1771418235122
3. 1771418236131
4. 1771418237077
5. 1771418238087
6. 1771418239034
7. 1771418240042
8. 1771418241038
9. 1771418242048
10. 1771418242994
11. 1771418244002
12. 1771418244949
13. 1771418245955
14. 1771418246954
15. 1771418247959
16. 1771418248909
17. 1771418249913
18. 1771418250914
19. 1771418251916
20. 1771418252869
21. 1771418253870
22. 1771418254873
23. 1771418255873
24. 1771418256825
25. 1771418257826
26. 1771418258778
27. 1771418259778
28. 1771418260730
29. 1771418261731
30. 1771418262684
31. 1771418263685
32. 1771418264636
33. 1771418265639
34. 1771418266639
35. 1771418267643
36. 1771418268592
37. 1771418269596
38. 1771418270595
39. 1771418271600
40. 1771418272549
41. 1771418273553
42. 1771418274552
43. 1771418275556
44. 1771418276556
45. 1771418277558
46. 1771418278509
47. 1771418279510
48. 1771418280461
49. 1771418281463
50. 1771418282416
51. 1771418283416
