INITIAL
* 7:22pm Feb 18, 2026
* a0_mu vs a1_lightzero
* 1 2 2 2 2 2 5 1 2 2 2 2 2 5
* X X X X
* X X X X
* X X X X
* X X X X
* X X X X
* X X X X
* X X X X
* X X X X
* first 0
* time 900
* 1. b1(G) b8(R)
* 2. c7(k) a4(p)
* 3. a6(P) d6(c)
* 4. b5(m) d7(c)
* 5. c5(P) d3(n)
* 6. a7(N) d1(R)
* 7. c8(G) c2(n)
* 8. d8(g) d2(p)
* 9. a2(r) a5(K)
* 10. b2(p) c1(p)
* 11. c3(m) d5(g)
* 12. a8(C) a1(N)
* 13. b3(M) d4(C)
* 14. b6(r) c4(P)
* 15. c6(P) a3(p)
* 16. b4(M) d5-d4
* 17. b7(P) d4-d5
* 18. b3-a3 c3-b3
* 19. c4-c3 d3-d4
* 20. b4-c4 b3-b4
* 21. c6-c7 d2-d3
* 22. d1-d2 b6-c6
* 23. c3-b3 c1-d1
* 24. c4-c3 d1-c1
* 25. c3-c4 d3-c3
* 26. b1-b2 c1-b1
* 27. c4-d4 b4-c4
* 28. a1-b1 c2-c1
* 29. b2-c2 a2-b2
* 30. a3-a2 a4-a3
* 31. a2-a1 a3-a4
* 32. a1-a2 a4-a3
* 33. a2-a1 a3-a2
* 34. b3-a3 c4-b4
* 35. d4-c4 c1-d1
* 36. c4-d4 d1-c1
* 37. d4-c4 c1-d1
* 38. c4-d4 d1-c1
* 39. d4-c4 c1-d1
* 40. c4-d4 d1-c1
* PositionRepetitionDraw,3,4 a0_mu Draw 0.500000,0.500000
* Comment 0 0
0. 1771413775661
1. 1771413775661
2. 1771413776846
3. 1771413777806
4. 1771413778752
5. 1771413779709
6. 1771413780706
7. 1771413781663
8. 1771413782659
9. 1771413783617
10. 1771413784612
11. 1771413785571
12. 1771413786516
13. 1771413787475
14. 1771413788419
15. 1771413789379
16. 1771413790375
17. 1771413791333
18. 1771413792331
19. 1771413793287
20. 1771413794285
21. 1771413795240
22. 1771413796239
23. 1771413797194
24. 1771413798193
25. 1771413799148
26. 1771413800147
27. 1771413801102
28. 1771413802100
29. 1771413803056
30. 1771413804053
31. 1771413805009
32. 1771413805958
33. 1771413806913
34. 1771413807912
35. 1771413808866
36. 1771413809866
37. 1771413810820
38. 1771413811820
39. 1771413812773
40. 1771413813774
41. 1771413814726
42. 1771413815728
43. 1771413816680
44. 1771413817682
45. 1771413818633
46. 1771413819586
47. 1771413820537
48. 1771413821541
49. 1771413822540
50. 1771413823544
51. 1771413824493
52. 1771413825499
53. 1771413826447
54. 1771413827452
55. 1771413828401
56. 1771413829406
57. 1771413830356
58. 1771413831360
59. 1771413832360
60. 1771413833364
61. 1771413834313
62. 1771413835318
63. 1771413836268
64. 1771413837272
65. 1771413838222
66. 1771413839225
67. 1771413840176
68. 1771413841179
69. 1771413842130
70. 1771413843133
71. 1771413844084
72. 1771413845037
73. 1771413845988
74. 1771413846990
75. 1771413847942
76. 1771413848945
77. 1771413849896
78. 1771413850900
79. 1771413851851
80. 1771413852854
