INITIAL
* 7:37pm Feb 18, 2026
* a1_lightzero vs a0_mu
* 1 2 2 2 2 2 5 1 2 2 2 2 2 5
* X X X X
* X X X X
* X X X X
* X X X X
* X X X X
* X X X X
* X X X X
* X X X X
* first 1
* time 900
* 1. b8(p) b1(P)
* 2. c7(p) a6(N)
* 3. a5(c) b5(g)
* 4. d3(C) a4(P)
* 5. b2(c) d6(G)
* 6. d7(p) d2(g)
* 7. b6(G) a3(R)
* 8. c3(r) a8(R)
* 9. a1(P) c5(p)
* 10. d1(P) c2(N)
* 11. d5(k) a2(K)
* 12. b7(r) b3(m)
* 13. c1(P) b4(n)
* 14. d8(M) d4(n)
* 15. a7(C) c8(M)
* 16. c6(p) c4(m)
* 17. d2-d3 d6-d7
* 18. d5-d6 d1-d2
* 19. d6-d5 c1-d1
* 20. d5-d6 c2-c1
* 21. d6-d5 c1-c2
* 22. d5-d6 c2-c1
* 23. d6-d5 c1-c2
* 24. d5-d6 c2-c1
* 25. d6-d5 c1-c2
* PositionRepetitionDraw,3,4 a1_lightzero Draw 0.500000,0.500000
* Comment 0 0
0. 1771414624498
1. 1771414624498
2. 1771414625683
3. 1771414626644
4. 1771414627637
5. 1771414628649
6. 1771414629642
7. 1771414630654
8. 1771414631647
9. 1771414632658
10. 1771414633602
11. 1771414634612
12. 1771414635557
13. 1771414636515
14. 1771414637462
15. 1771414638418
16. 1771414639367
17. 1771414640372
18. 1771414641322
19. 1771414642325
20. 1771414643277
21. 1771414644279
22. 1771414645233
23. 1771414646233
24. 1771414647188
25. 1771414648187
26. 1771414649143
27. 1771414650141
28. 1771414651097
29. 1771414652095
30. 1771414653050
31. 1771414654049
32. 1771414655053
33. 1771414656002
34. 1771414656956
35. 1771414657956
36. 1771414658909
37. 1771414659860
38. 1771414660811
39. 1771414661815
40. 1771414662764
41. 1771414663770
42. 1771414664716
43. 1771414665725
44. 1771414666669
45. 1771414667680
46. 1771414668674
47. 1771414669685
48. 1771414670676
49. 1771414671690
50. 1771414672679
