INITIAL
* 8:23pm Feb 18, 2026
* a1_lightzero vs a0_mu
* 1 2 2 2 2 2 5 1 2 2 2 2 2 5
* X X X X
* X X X X
* X X X X
* X X X X
* X X X X
* X X X X
* X X X X
* X X X X
* first 0
* time 900
* 1. b8(C) b1(m)
* 2. c7(P) b5(P)
* 3. a4(p) a7(P)
* 4. b2(G) a6(n)
* 5. d3(p) d6(m)
* 6. d1(c) c8(p)
* 7. d7(r) c5(R)
* 8. d5(G) d8(M)
* 9. d8-c8 a5(r)
* 10. b6(n) a3(p)
* 11. a2(K) c2(P)
* 12. d4(c) c3(N)
* 13. b4(k) b7(M)
* 14. c6(N) a8(p)
* 15. d2(g) d7-d8
* 16. c1(R) d6-d7
* 17. a1(C) b3(g)
* 18. d5-d6 c4(P)
* 19. d6-d5 d7-d6
* 20. d5-d4 d6-d7
* 21. c1-d1 d7-d6
* 22. d1-c1 d2-d1
* 23. d4-d5 d6-d7
* 24. b2-b3 d3-d2
* 25. a2-b2 d7-d6
* 26. d5-d4 d6-d7
* 27. b2-a2 d7-d6
* 28. a2-b2 d6-d7
* 29. b2-a2 d7-d6
* 30. a2-b2 d6-d7
* 31. b2-a2 d7-d6
* 32. a2-b2
* PositionRepetitionDraw,3,4 a1_lightzero Draw 0.500000,0.500000
* Comment 0 0
0. 1771417421178
1. 1771417421178
2. 1771417422306
3. 1771417423324
4. 1771417424360
5. 1771417425378
6. 1771417426365
7. 1771417427382
8. 1771417428371
9. 1771417429387
10. 1771417430377
11. 1771417431391
12. 1771417432383
13. 1771417433395
14. 1771417434388
15. 1771417435449
16. 1771417436394
17. 1771417437402
18. 1771417438349
19. 1771417439355
20. 1771417440304
21. 1771417441359
22. 1771417442310
23. 1771417443313
24. 1771417444265
25. 1771417445267
26. 1771417446220
27. 1771417447221
28. 1771417448225
29. 1771417449225
30. 1771417450179
31. 1771417451179
32. 1771417452133
33. 1771417453134
34. 1771417454087
35. 1771417455088
36. 1771417456040
37. 1771417457042
38. 1771417457993
39. 1771417458997
40. 1771417459946
41. 1771417460951
42. 1771417461900
43. 1771417462905
44. 1771417463904
45. 1771417464910
46. 1771417465858
47. 1771417466863
48. 1771417467811
49. 1771417468816
50. 1771417469766
51. 1771417470770
52. 1771417471720
53. 1771417472723
54. 1771417473674
55. 1771417474677
56. 1771417475678
57. 1771417476681
58. 1771417477682
59. 1771417478684
60. 1771417479635
61. 1771417480638
62. 1771417481590
63. 1771417482591
