INITIAL
* 8:27pm Feb 18, 2026
* a0_mu vs a1_lightzero
* 1 2 2 2 2 2 5 1 2 2 2 2 2 5
* X X X X
* X X X X
* X X X X
* X X X X
* X X X X
* X X X X
* X X X X
* X X X X
* first 0
* time 900
* 1. b1(P) b8(p)
* 2. c7(C) a4(p)
* 3. b5(P) d7(p)
* 4. a7(K) d3(m)
* 5. a6(r) d1(p)
* 6. c8(k) d6(c)
* 7. c5(r) d2(n)
* 8. d4(c) a1(M)
* 9. c2(n) d8(P)
* 10. c3(M) d5(R)
* 11. b2(p) a5(C)
* 12. a8(N) b6(P)
* 13. b7(P) a3(g)
* 14. b3(m) a2(N)
* 15. c6(R) c4(G)
* 16. b4(G) c1(g)
* 17. c4-d4 c1-b1
* 18. d4-c4 b1-c1
* 19. a1-b1 d3-d4
* 20. a2-a1 a3-a2
* 21. a8-b8 a2-a3
* 22. a1-a2 d2-d3
* 23. a2-a1 a3-a2
* 24. c4-d4 a2-a3
* 25. d4-c4 d3-d4
* 26. a1-a2 d1-d2
* 27. a2-a1 c1-d1
* 28. a1-a2 d1-c1
* 29. a2-a1 c1-d1
* 30. a1-a2 d1-c1
* 31. a2-a1 c1-d1
* 32. a1-a2 d1-c1
* PositionRepetitionDraw,3,4 a0_mu Draw 0.500000,0.500000
* Comment 0 0
0. 1771417630883
1. 1771417630883
2. 1771417632072
3. 1771417633028
4. 1771417634026
5. 1771417634982
6. 1771417635930
7. 1771417636886
8. 1771417637882
9. 1771417638839
10. 1771417639835
11. 1771417640793
12. 1771417641788
13. 1771417642747
14. 1771417643741
15. 1771417644701
16. 1771417645744
17. 1771417646704
18. 1771417647698
19. 1771417648708
20. 1771417649701
21. 1771417650662
22. 1771417651704
23. 1771417652667
24. 1771417653708
25. 1771417654671
26. 1771417655711
27. 1771417656676
28. 1771417657714
29. 1771417658680
30. 1771417659668
31. 1771417660635
32. 1771417661671
33. 1771417662640
34. 1771417663674
35. 1771417664645
36. 1771417665678
37. 1771417666649
38. 1771417667681
39. 1771417668653
40. 1771417669634
41. 1771417670607
42. 1771417671588
43. 1771417672561
44. 1771417673592
45. 1771417674567
46. 1771417675594
47. 1771417676571
48. 1771417677597
49. 1771417678576
50. 1771417679600
51. 1771417680581
52. 1771417681603
53. 1771417682586
54. 1771417683605
55. 1771417684591
56. 1771417685608
57. 1771417686596
58. 1771417687610
59. 1771417688601
60. 1771417689613
61. 1771417690606
62. 1771417691616
63. 1771417692611
64. 1771417693618
