INITIAL
* 7:52pm Feb 18, 2026
* a1_lightzero vs a0_mu
* 1 2 2 2 2 2 5 1 2 2 2 2 2 5
* X X X X
* X X X X
* X X X X
* X X X X
* X X X X
* X X X X
* X X X X
* X X X X
* first 0
* time 900
* 1. b8(M) b1(r)
* 2. a4(p) c7(N)
* 3. d7(p) a6(c)
* 4. d3(R) b5(P)
* 5. b2(C) a7(k)
* 6. d8(c) c8(P)
* 7. a2(P) d1(r)
* 8. d6(K) c5(R)
* 9. d5(P) a5(N)
* 10. b6(g) c2(n)
* 11. b7(n) a3(m)
* 12. d2(G) b3(P)
* 13. c4(M) a1(g)
* 14. a8(m) d4(C)
* 15. c6(p) b4(G)
* 16. a5-a6 c3(p)
* 17. d2-c2 a1-a2
* 18. a6-a5 a2-a1
* 19. a5-a6 a1-a2
* 20. a6-a5 a2-a1
* 21. a5-a6 a1-a2
* 22. a6-a5 a2-a1
* 23. a5-a6 a1-a2
* PositionRepetitionDraw,3,4 a1_lightzero Draw 0.500000,0.500000
* Comment 0 0
0. 1771415565873
1. 1771415565873
2. 1771415567005
3. 1771415568019
4. 1771415569008
5. 1771415570024
6. 1771415571011
7. 1771415572028
8. 1771415573014
9. 1771415574034
10. 1771415575017
11. 1771415576039
12. 1771415577021
13. 1771415578044
14. 1771415579025
15. 1771415580050
16. 1771415581029
17. 1771415582056
18. 1771415583033
19. 1771415584060
20. 1771415585036
21. 1771415586062
22. 1771415587039
23. 1771415588066
24. 1771415589043
25. 1771415590068
26. 1771415591047
27. 1771415592071
28. 1771415593051
29. 1771415594075
30. 1771415595054
31. 1771415596078
32. 1771415597059
33. 1771415598081
34. 1771415599062
35. 1771415600084
36. 1771415601066
37. 1771415602086
38. 1771415603070
39. 1771415604089
40. 1771415605073
41. 1771415606093
42. 1771415607077
43. 1771415608097
44. 1771415609079
45. 1771415610102
46. 1771415611081
