INITIAL
* 7:20pm Feb 18, 2026
* a0_mu vs a1_lightzero
* 1 2 2 2 2 2 5 1 2 2 2 2 2 5
* X X X X
* X X X X
* X X X X
* X X X X
* X X X X
* X X X X
* X X X X
* X X X X
* first 1
* time 900
* 1. b1(r) b8(M)
* 2. c7(c) a4(r)
* 3. a6(P) b2(P)
* 4. d8(G) c5(n)
* 5. d7(p) d3(p)
* 6. a5(p) d6(c)
* 7. c8(N) a2(p)
* 8. c1(P) d5(R)
* 9. a7(R) d1(m)
* 10. c3(K) b4(p)
* 11. c2(g) c4(G)
* 12. b3(P) b6(m)
* 13. a8(C) a3(C)
* 14. b7(n) a1(g)
* 15. d2(k) d4(P)
* 16. b5(N) c6(M)
* 17. a2-b2 d8-d7
* 18. a1-a2 d7-c7
* 19. a2-a1 c7-d7
* 20. a1-a2 d7-c7
* 21. a2-a1 c7-d7
* 22. a1-a2 d7-c7
* 23. a2-a1 c7-d7
* 24. a1-a2 d7-c7
* PositionRepetitionDraw,3,4 a0_mu Draw 0.500000,0.500000
* Comment 0 0
0. 1771413658736
1. 1771413658736
2. 1771413659924
3. 1771413660880
4. 1771413661878
5. 1771413662833
6. 1771413663834
7. 1771413664787
8. 1771413665789
9. 1771413666740
10. 1771413667744
11. 1771413668694
12. 1771413669700
13. 1771413670648
14. 1771413671655
15. 1771413672601
16. 1771413673610
17. 1771413674555
18. 1771413675563
19. 1771413676508
20. 1771413677517
21. 1771413678462
22. 1771413679470
23. 1771413680416
24. 1771413681424
25. 1771413682370
26. 1771413683377
27. 1771413684323
28. 1771413685331
29. 1771413686277
30. 1771413687284
31. 1771413688231
32. 1771413689287
33. 1771413690235
34. 1771413691241
35. 1771413692189
36. 1771413693195
37. 1771413694143
38. 1771413695150
39. 1771413696098
40. 1771413697105
41. 1771413698052
42. 1771413699060
43. 1771413700006
44. 1771413701015
45. 1771413701959
46. 1771413702970
47. 1771413703913
48. 1771413704925
