INITIAL
* 8:9pm Feb 18, 2026
* a0_mu vs a1_lightzero
* 1 2 2 2 2 2 5 1 2 2 2 2 2 5
* X X X X
* X X X X
* X X X X
* X X X X
* X X X X
* X X X X
* X X X X
* X X X X
* first 0
* time 900
* 1. b1(G) b8(M)
* 2. c7(m) a4(g)
* 3. a6(P) d3(P)
* 4. d8(P) c5(r)
* 5. a5(C) b2(n)
* 6. c8(N) c2(K)
* 7. d6(M) c3(p)
* 8. c1(G) d5(r)
* 9. d2(P) a3(p)
* 10. d7(g) a2(R)
* 11. b5(c) b6(p)
* 12. d1(k) c4(p)
* 13. b3(m) b4(C)
* 14. a8(n) c6(p)
* 15. d4(R) a1(P)
* 16. b7(c) a7(N)
* 17. a2-b2 a4-b4
* 18. a1-a2 a3-a4
* 19. a2-a3 d7-d6
* 20. a3-a2 d6-d7
* 21. a2-a3 d7-d6
* 22. a3-a2 d6-d7
* 23. a2-a3 d7-d6
* 24. a3-a2 d6-d7
* 25. a2-a3 d7-d6
* PositionRepetitionDraw,3,4 a0_mu Draw 0.500000,0.500000
* Comment 0 0
0. 1771416568822
1. 1771416568822
2. 1771416570005
3. 1771416570968
4. 1771416572009
5. 1771416572973
6. 1771416574013
7. 1771416574979
8. 1771416576018
9. 1771416576984
10. 1771416578023
11. 1771416578989
12. 1771416580027
13. 1771416580994
14. 1771416582032
15. 1771416583050
16. 1771416584086
17. 1771416585055
18. 1771416586090
19. 1771416587060
20. 1771416588144
21. 1771416589115
22. 1771416590149
23. 1771416591171
24. 1771416592203
25. 1771416593175
26. 1771416594208
27. 1771416595229
28. 1771416596262
29. 1771416597234
30. 1771416598266
31. 1771416599237
32. 1771416600270
33. 1771416601240
34. 1771416602275
35. 1771416603244
36. 1771416604279
37. 1771416605248
38. 1771416606283
39. 1771416607252
40. 1771416608287
41. 1771416609255
42. 1771416610291
43. 1771416611259
44. 1771416612296
45. 1771416613263
46. 1771416614301
47. 1771416615265
48. 1771416616305
49. 1771416617268
50. 1771416618309
