INITIAL
* 8:15pm Feb 18, 2026
* a1_lightzero vs a0_mu
* 1 2 2 2 2 2 5 1 2 2 2 2 2 5
* X X X X
* X X X X
* X X X X
* X X X X
* X X X X
* X X X X
* X X X X
* X X X X
* first 1
* time 900
* 1. b8(c) b1(P)
* 2. c7(n) b5(m)
* 3. a4(g) a7(n)
* 4. b2(p) a6(P)
* 5. d8(g) a5(C)
* 6. d2(p) c3(R)
* 7. c5(M) d7(M)
* 8. d3(p) c2(r)
* 9. b3(G) c1(r)
* 10. c4(N) b7(K)
* 11. b4(N) c6(p)
* 12. a3(m) d4(P)
* 13. a1(R) b6(C)
* 14. d6(c) d7-c7
* 15. d5(P) c8(G)
* 16. d1(k) a8(p)
* 17. d8-d7 a2(P)
* 18. d7-d8 c8-b8
* 19. d8-d7 b3-b2
* 20. d7-d8 c7-d7
* 21. d8-c8 d7-c7
* 22. a4-b4 c7-d7
* 23. a3-b3 d7-c7
* 24. b3-a3 c7-d7
* 25. a3-b3 d7-c7
* 26. b3-a3 c7-d7
* 27. a3-b3 d7-c7
* 28. b3-a3
* PositionRepetitionDraw,3,4 a1_lightzero Draw 0.500000,0.500000
* Comment 0 0
0. 1771416937247
1. 1771416937247
2. 1771416938442
3. 1771416939444
4. 1771416940397
5. 1771416941400
6. 1771416942352
7. 1771416943355
8. 1771416944308
9. 1771416945311
10. 1771416946263
11. 1771416947266
12. 1771416948217
13. 1771416949221
14. 1771416950172
15. 1771416951175
16. 1771416952126
17. 1771416953129
18. 1771416954080
19. 1771416955083
20. 1771416956035
21. 1771416957036
22. 1771416958039
23. 1771416959040
24. 1771416959994
25. 1771416960993
26. 1771416961947
27. 1771416962946
28. 1771416963952
29. 1771416964950
30. 1771416965906
31. 1771416966903
32. 1771416967860
33. 1771416968857
34. 1771416969814
35. 1771416970811
36. 1771416971768
37. 1771416972763
38. 1771416973721
39. 1771416974716
40. 1771416975676
41. 1771416976718
42. 1771416977730
43. 1771416978771
44. 1771416979783
45. 1771416980823
46. 1771416981837
47. 1771416982875
48. 1771416983891
49. 1771416984929
50. 1771416985945
51. 1771416986981
52. 1771416987949
53. 1771416988984
54. 1771416989953
55. 1771416990986
