INITIAL
* 6:54pm Feb 18, 2026
* a0_mu vs a1_lightzero
* 1 2 2 2 2 2 5 1 2 2 2 2 2 5
* X X X X
* X X X X
* X X X X
* X X X X
* X X X X
* X X X X
* X X X X
* X X X X
* first 0
* time 900
* 1. b1(R) b8(p)
* 2. c7(n) a4(r)
* 3. a6(M) b2(M)
* 4. b5(p) d3(m)
* 5. d6(p) d7(c)
* 6. c8(n) a1(C)
* 7. d8(p) d1(K)
* 8. c3(P) d5(N)
* 9. a5(C) b6(P)
* 10. a3(c) c5(P)
* 11. c2(R) d2(g)
* 12. c1(G) a7(G)
* 13. a8(P) d4(P)
* 14. b4(p) b3(g)
* 15. a2(m) c6(N)
* 16. c6-d6 d3-d4
* 17. c5-b5 a2-b2
* 18. a1-a2 d2-d3
* 19. a2-a1 b2-a2
* 20. d6-c6 a2-b2
* 21. b7(k) b2-a2
* 22. c6-c5 a2-b2
* 23. a1-a2 d3-d2
* 24. a2-a1 d2-d3
* 25. a1-a2 d3-d2
* 26. a2-a1 d2-d3
* 27. a1-a2 d3-d2
* 28. a2-a1 d2-d3
* PositionRepetitionDraw,3,4 a0_mu Draw 0.500000,0.500000
* Comment 0 0
0. 1771412051507
1. 1771412051507
2. 1771412052692
3. 1771412053653
4. 1771412054646
5. 1771412055608
6. 1771412056650
7. 1771412057612
8. 1771412058655
9. 1771412059615
10. 1771412060659
11. 1771412061619
12. 1771412062663
13. 1771412063623
14. 1771412064667
15. 1771412065627
16. 1771412066671
17. 1771412067631
18. 1771412068676
19. 1771412069634
20. 1771412070628
21. 1771412071588
22. 1771412072632
23. 1771412073591
24. 1771412074586
25. 1771412075545
26. 1771412076539
27. 1771412077498
28. 1771412078492
29. 1771412079452
30. 1771412080495
31. 1771412081454
32. 1771412082448
33. 1771412083408
34. 1771412084404
35. 1771412085412
36. 1771412086409
37. 1771412087367
38. 1771412088362
39. 1771412089321
40. 1771412090316
41. 1771412091274
42. 1771412092271
43. 1771412093229
44. 1771412094224
45. 1771412095182
46. 1771412096179
47. 1771412097136
48. 1771412098083
49. 1771412099040
50. 1771412100037
51. 1771412100994
52. 1771412101990
53. 1771412102947
54. 1771412103944
55. 1771412104901
56. 1771412105898
