INITIAL
* 8:41pm Feb 18, 2026
* a1_lightzero vs a0_mu
* 1 2 2 2 2 2 5 1 2 2 2 2 2 5
* X X X X
* X X X X
* X X X X
* X X X X
* X X X X
* X X X X
* X X X X
* X X X X
* first 1
* time 900
* 1. b8(c) b1(P)
* 2. c7(p) b5(g)
* 3. a4(k) a7(N)
* 4. b2(P) a6(r)
* 5. d8(G) c3(G)
* 6. b3(K) c5(c)
* 7. b4(P) c4(P)
* 8. a5(C) b7(p)
* 9. d2(n) c2(p)
* 10. c1(p) c6(g)
* 11. a3(M) d4(R)
* 12. a1(m) b6(R)
* 13. d7(n) b4-a4
* 14. a8(M) a4-b4
* 15. d5(m) a7-b7
* 16. d6(C) b7-a7
* 17. a2(r) a7-b7
* 18. d1(N) b7-a7
* 19. d3(P) a7-b7
* 20. a6-a7 b7-b8
* 21. b5-a5 b6-b5
* 22. a5-a6 b5-b6
* 23. a6-a5 b6-b5
* 24. a5-a6 b5-b6
* 25. a6-a5 b6-b5
* 26. a5-a6 b5-b6
* 27. a6-a5
* PositionRepetitionDraw,3,4 a1_lightzero Draw 0.500000,0.500000
* Comment 0 0
0. 1771418488868
1. 1771418488868
2. 1771418490055
3. 1771418491061
4. 1771418492008
5. 1771418493014
6. 1771418493962
7. 1771418494967
8. 1771418495916
9. 1771418496920
10. 1771418497870
11. 1771418498874
12. 1771418499824
13. 1771418500827
14. 1771418501778
15. 1771418502780
16. 1771418503732
17. 1771418504734
18. 1771418505685
19. 1771418506687
20. 1771418507689
21. 1771418508691
22. 1771418509643
23. 1771418510645
24. 1771418511646
25. 1771418512649
26. 1771418513601
27. 1771418514652
28. 1771418515605
29. 1771418516656
30. 1771418517610
31. 1771418518610
32. 1771418519562
33. 1771418520564
34. 1771418521516
35. 1771418522518
36. 1771418523470
37. 1771418524522
38. 1771418525473
39. 1771418526476
40. 1771418527427
41. 1771418528429
42. 1771418529381
43. 1771418530383
44. 1771418531336
45. 1771418532387
46. 1771418533340
47. 1771418534341
48. 1771418535343
49. 1771418536345
50. 1771418537297
51. 1771418538299
52. 1771418539251
53. 1771418540252
