INITIAL
* 8:8pm Feb 18, 2026
* a1_lightzero vs a0_mu
* 1 2 2 2 2 2 5 1 2 2 2 2 2 5
* X X X X
* X X X X
* X X X X
* X X X X
* X X X X
* X X X X
* X X X X
* X X X X
* first 1
* time 900
* 1. b8(k) b1(g)
* 2. c7(C) a6(R)
* 3. a4(g) b5(p)
* 4. d3(K) a7(G)
* 5. b2(G) a5(P)
* 6. d7(n) c8(P)
* 7. d4(m) c5(M)
* 8. d1(n) d6(M)
* 9. d5(p) b6(r)
* 10. b7(c) d8(r)
* 11. d2(R) a3(m)
* 12. c2(p) c3(P)
* 13. a8(N) c4(c)
* 14. b3(p) c1(P)
* 15. a1(C) b4(P)
* 16. a2(p) d3-d4
* 17. c6(N) b2-a2
* 18. b1-b2 a1-b1
* 19. a4-b4 a2-a1
* 20. b2-a2 c5-b5
* 21. a2-b2 a1-a2
* 22. b4-a4 a2-a1
* 23. a4-b4 a1-a2
* 24. b4-a4 a2-a1
* 25. a4-b4 a1-a2
* 26. b4-a4 a2-a1
* 27. a4-b4
* PositionRepetitionDraw,3,4 a1_lightzero Draw 0.500000,0.500000
* Comment 0 0
0. 1771416505941
1. 1771416505941
2. 1771416507129
3. 1771416508137
4. 1771416509135
5. 1771416510141
6. 1771416511090
7. 1771416512095
8. 1771416513045
9. 1771416514049
10. 1771416515001
11. 1771416516002
12. 1771416516956
13. 1771416517956
14. 1771416518911
15. 1771416519909
16. 1771416520866
17. 1771416521863
18. 1771416522821
19. 1771416523817
20. 1771416524826
21. 1771416525820
22. 1771416526782
23. 1771416527824
24. 1771416528787
25. 1771416529826
26. 1771416530793
27. 1771416531831
28. 1771416532798
29. 1771416533835
30. 1771416534804
31. 1771416535839
32. 1771416536857
33. 1771416537893
34. 1771416538861
35. 1771416539896
36. 1771416540915
37. 1771416541950
38. 1771416542969
39. 1771416544005
40. 1771416545023
41. 1771416546058
42. 1771416547027
43. 1771416548062
44. 1771416549031
45. 1771416550065
46. 1771416551085
47. 1771416552118
48. 1771416553089
49. 1771416554073
50. 1771416555042
51. 1771416556078
52. 1771416557047
53. 1771416558081
