INITIAL
* 7:12pm Feb 18, 2026
* a1_lightzero vs a0_mu
* 1 2 2 2 2 2 5 1 2 2 2 2 2 5
* X X X X
* X X X X
* X X X X
* X X X X
* X X X X
* X X X X
* X X X X
* X X X X
* first 1
* time 900
* 1. b8(k) b1(M)
* 2. c7(C) a6(P)
* 3. d3(P) b5(G)
* 4. d7(n) a5(P)
* 5. b2(r) d2(p)
* 6. d8(R) a4(N)
* 7. c5(c) a7(r)
* 8. d1(P) c3(R)
* 9. d6(m) c8(p)
* 10. b3(p) a8(N)
* 11. b7(n) d4(M)
* 12. d5(g) c6(p)
* 13. a3(p) c2(C)
* 14. a1(g) b6(P)
* 15. b4(G) b4-b3
* 16. c4(m) c1(K)
* 17. a2(c) b3-b4
* 18. b2-b3 b4-c4
* 19. b3-b4 b1-b2
* 20. a1-b1 b2-b3
* 21. b1-b2 c1-b1
* 22. b2-c2 b3-b2
* 23. c2-c1 b2-c2
* 24. a2-a1 b1-b2
* 25. c1-b1 b2-a2
* 26. b1-c1 a2-b2
* 27. c1-b1 b2-a2
* 28. b1-c1 a2-b2
* 29. c1-b1 b2-a2
* 30. b1-c1 a2-b2
* PositionRepetitionDraw,3,4 a1_lightzero Draw 0.500000,0.500000
* Comment 0 0
0. 1771413160039
1. 1771413160039
2. 1771413161136
3. 1771413162082
4. 1771413163089
5. 1771413164085
6. 1771413165041
7. 1771413165988
8. 1771413166944
9. 1771413167891
10. 1771413168847
11. 1771413169794
12. 1771413170750
13. 1771413171698
14. 1771413172653
15. 1771413173602
16. 1771413174605
17. 1771413175605
18. 1771413176608
19. 1771413177609
20. 1771413178561
21. 1771413179563
22. 1771413180515
23. 1771413181517
24. 1771413182518
25. 1771413183522
26. 1771413184472
27. 1771413185478
28. 1771413186426
29. 1771413187433
30. 1771413188379
31. 1771413189338
32. 1771413190333
33. 1771413191344
34. 1771413192337
35. 1771413193300
36. 1771413194291
37. 1771413195254
38. 1771413196244
39. 1771413197208
40. 1771413198198
41. 1771413199212
42. 1771413200202
43. 1771413201166
44. 1771413202155
45. 1771413203120
46. 1771413204160
47. 1771413205124
48. 1771413206163
49. 1771413207178
50. 1771413208167
51. 1771413209183
52. 1771413210171
53. 1771413211137
54. 1771413212125
55. 1771413213140
56. 1771413214128
57. 1771413215143
58. 1771413216131
59. 1771413217097
60. 1771413218084
