INITIAL
* 8:11pm Feb 18, 2026
* a0_mu vs a1_lightzero
* 1 2 2 2 2 2 5 1 2 2 2 2 2 5
* X X X X
* X X X X
* X X X X
* X X X X
* X X X X
* X X X X
* X X X X
* X X X X
* first 0
* time 900
* 1. b1(N) b8(k)
* 2. c7(r) a4(C)
* 3. a6(n) b2(c)
* 4. b5(R) d3(P)
* 5. d6(r) d7(c)
* 6. a5(n) b6(G)
* 7. a3(m) d1(p)
* 8. c2(G) d8(R)
* 9. d2(g) d5(p)
* 10. c8(p) a2(K)
* 11. b3(P) c4(P)
* 12. a7(p) c1(m)
* 13. c3(p) a1(g)
* 14. a8(C) c6(M)
* 15. b4(P) d4(N)
* 16. c5(M) a1-b1
* 17. a2-a1 a3-a2
* 18. b7(P) a2-a3
* 19. a1-a2 b1-a1
* 20. c6-c7 a1-b1
* 21. a2-a1 a3-a2
* 22. a1-b1 a2-a1
* 23. a4-a3 a1-a2
* 24. b1-a1 c1-b1
* 25. a1-b1 a2-a1
* 26. c2-c1 d2-c2
* 27. d3-d2 a1-a2
* 28. b1-a1 d6-c6
* 29. a1-b1 a2-a1
* 30. d4-d3 a1-a2
* 31. b1-a1 d5-d4
* 32. a1-b1 a2-a1
* 33. c7-d7 a1-a2
* 34. d7-c7 a2-a1
* 35. c7-d7 a1-a2
* 36. d7-c7 a2-a1
* 37. c7-d7 a1-a2
* 38. d7-c7 a2-a1
* 39. c7-d7
* PositionRepetitionDraw,3,4 a0_mu Draw 0.500000,0.500000
* Comment 0 0
0. 1771416687097
1. 1771416687097
2. 1771416688282
3. 1771416689243
4. 1771416690187
5. 1771416691148
6. 1771416692143
7. 1771416693103
8. 1771416694098
9. 1771416695056
10. 1771416696053
11. 1771416697008
12. 1771416698008
13. 1771416698961
14. 1771416699963
15. 1771416700913
16. 1771416701918
17. 1771416702866
18. 1771416703874
19. 1771416704819
20. 1771416705829
21. 1771416706773
22. 1771416707784
23. 1771416708777
24. 1771416709789
25. 1771416710780
26. 1771416711794
27. 1771416712784
28. 1771416713799
29. 1771416714788
30. 1771416715804
31. 1771416716791
32. 1771416717810
33. 1771416718794
34. 1771416719815
35. 1771416720798
36. 1771416721820
37. 1771416722801
38. 1771416723775
39. 1771416724755
40. 1771416725780
41. 1771416726758
42. 1771416727735
43. 1771416728710
44. 1771416729739
45. 1771416730714
46. 1771416731745
47. 1771416732717
48. 1771416733750
49. 1771416734721
50. 1771416735755
51. 1771416736725
52. 1771416737760
53. 1771416738728
54. 1771416739763
55. 1771416740730
56. 1771416741766
57. 1771416742732
58. 1771416743719
59. 1771416744686
60. 1771416745673
61. 1771416746640
62. 1771416747676
63. 1771416748643
64. 1771416749680
65. 1771416750646
66. 1771416751682
67. 1771416752651
68. 1771416753684
69. 1771416754654
70. 1771416755687
71. 1771416756656
72. 1771416757689
73. 1771416758659
74. 1771416759692
75. 1771416760661
76. 1771416761695
77. 1771416762664
