INITIAL
* 8:19pm Feb 18, 2026
* a1_lightzero vs a0_mu
* 1 2 2 2 2 2 5 1 2 2 2 2 2 5
* X X X X
* X X X X
* X X X X
* X X X X
* X X X X
* X X X X
* X X X X
* X X X X
* first 0
* time 900
* 1. b8(N) b1(C)
* 2. a4(P) c7(c)
* 3. b2(c) a6(r)
* 4. d3(K) d8(C)
* 5. c5(g) d7(m)
* 6. d6(G) c8(R)
* 7. d1(P) a5(M)
* 8. b6(r) a7(P)
* 9. d2(n) a3(R)
* 10. a1(g) c3(p)
* 11. d5(m) c2(k)
* 12. a8(N) c1(p)
* 13. a2(p) b5(G)
* 14. c4(p) b3(n)
* 15. d4(P) b7(M)
* 16. c6(p) b4(P)
* 17. d6-c6 d7-d6
* 18. d3-d2 d6-d7
* 19. c6-d6 c5-c6
* 20. d2-d3 c6-c5
* 21. d3-d2 c5-c6
* 22. d2-d3 c6-c5
* 23. d3-d2 c5-c6
* 24. d2-d3 c6-c5
* 25. d3-d2
* PositionRepetitionDraw,3,4 a1_lightzero Draw 0.500000,0.500000
* Comment 0 0
0. 1771417154196
1. 1771417154196
2. 1771417155336
3. 1771417156341
4. 1771417157292
5. 1771417158295
6. 1771417159247
7. 1771417160250
8. 1771417161202
9. 1771417162204
10. 1771417163156
11. 1771417164157
12. 1771417165160
13. 1771417166160
14. 1771417167114
15. 1771417168114
16. 1771417169068
17. 1771417170068
18. 1771417171022
19. 1771417172022
20. 1771417172976
21. 1771417173974
22. 1771417174930
23. 1771417175927
24. 1771417176934
25. 1771417177932
26. 1771417178938
27. 1771417179934
28. 1771417180892
29. 1771417181886
30. 1771417182895
31. 1771417183889
32. 1771417184849
33. 1771417185842
34. 1771417186802
35. 1771417187795
36. 1771417188805
37. 1771417189848
38. 1771417190807
39. 1771417191800
40. 1771417192760
41. 1771417193803
42. 1771417194764
43. 1771417195756
44. 1771417196718
45. 1771417197758
46. 1771417198722
47. 1771417199761
48. 1771417200726
49. 1771417201764
