INITIAL
* 7:3pm Feb 18, 2026
* a0_mu vs a1_lightzero
* 1 2 2 2 2 2 5 1 2 2 2 2 2 5
* X X X X
* X X X X
* X X X X
* X X X X
* X X X X
* X X X X
* X X X X
* X X X X
* first 0
* time 900
* 1. b1(R) b8(M)
* 2. c7(P) a4(P)
* 3. a6(n) b2(g)
* 4. d8(c) d3(p)
* 5. c8(G) c5(P)
* 6. d6(K) a1(r)
* 7. d7(m) d1(C)
* 8. a7(P) d2(p)
* 9. c3(M) a5(p)
* 10. b6(C) a8(r)
* 11. a3(R) c2(N)
* 12. c6(m) d5(n)
* 13. c4(k) d4(N)
* 14. b7(G) a2(p)
* 15. b4(P) b3(g)
* 16. c1(p) b5(c)
* 17. b1-a1 c1-b1
* 18. a1-a2 a8-a7
* 19. a2-a1 b1-c1
* 20. a1-a2 c1-b1
* 21. a2-a1 b1-c1
* 22. a1-a2 c1-b1
* 23. a2-a1 b1-c1
* 24. a1-a2 c1-b1
* PositionRepetitionDraw,3,4 a0_mu Draw 0.500000,0.500000
* Comment 0 0
0. 1771412594771
1. 1771412594771
2. 1771412595959
3. 1771412596917
4. 1771412597914
5. 1771412598873
6. 1771412599870
7. 1771412600828
8. 1771412601826
9. 1771412602783
10. 1771412603781
11. 1771412604739
12. 1771412605737
13. 1771412606693
14. 1771412607692
15. 1771412608648
16. 1771412609648
17. 1771412610601
18. 1771412611603
19. 1771412612555
20. 1771412613558
21. 1771412614509
22. 1771412615514
23. 1771412616463
24. 1771412617519
25. 1771412618468
26. 1771412619475
27. 1771412620421
28. 1771412621431
29. 1771412622375
30. 1771412623387
31. 1771412624380
32. 1771412625392
33. 1771412626384
34. 1771412627395
35. 1771412628387
36. 1771412629399
37. 1771412630392
38. 1771412631403
39. 1771412632446
40. 1771412633458
41. 1771412634450
42. 1771412635462
43. 1771412636454
44. 1771412637466
45. 1771412638459
46. 1771412639469
47. 1771412640413
48. 1771412641423
