INITIAL
* 5:37pm Feb 22, 2026
* a1_stmu vs a0_mu
* 1 2 2 2 2 2 5 1 2 2 2 2 2 5
* X X X X
* X X X X
* X X X X
* X X X X
* X X X X
* X X X X
* X X X X
* X X X X
* first 0
* time 900
* 1. b8(P) b1(p)
* 2. c8(P) b5(G)
* 3. a8(C) a7(N)
* 4. d8(P) a4(m)
* 5. b7(n) c6(n)
* 6. a7-b7 c7(p)
* 7. a8-a7 c2(c)
* 8. a7-a8 d4(C)
* 9. c8-c7 d2(G)
* 10. c7-c8 a3(r)
* 11. b7-a7 d7(p)
* 12. a7-b7 b2(c)
* 13. a8-a7 c3(R)
* 14. b7-c7 c5(K)
* 15. a7-a8 a5(k)
* 16. c7-d7 b3(P)
* 17. a8-a7 a1(R)
* 18. a7-a8 d6(M)
* 19. b8-b7 d5(P)
* 20. a8-b8 d1(g)
* 21. b7-a7 c4(p)
* 22. a7-a8 d3(M)
* 23. d7-c7 b6(m)
* 24. a8-a7 b4(g)
* 25. b8-a8 a2(p)
* 26. a8-b8 b4-b5
* 27. a7-a8 c6-c7
* 28. a8-a7 c7-d7
* 29. a7-a8 d7-c7
* 30. b8-b7 c7-d7
* 31. a8-b8 d7-c7
* 32. b8-a8 c7-d7
* 33. b7-b8 d7-c7
* 34. a8-a7 c7-d7
* 35. a7-a8 d7-c7
* 36. b8-b7 c7-d7
* 37. b7-c7 c4-b4
* 38. a8-b8 b4-c4
* 39. b8-b7 a6(N)
* 40. b7-b8 b5-b4
* 41. c7-b7 b6-b5
* 42. b8-a8 d7-c7
* 43. a8-b8 c7-d7
* 44. b8-a8 d7-c7
* 45. a8-b8 c7-d7
* 46. b8-a8 d7-c7
* 47. a8-b8 c7-d7
* PositionRepetitionDraw,3,4 a1_stmu Draw 0.500000,0.500000
* Comment 0 0
0. 1771753040126
1. 1771753040126
2. 1771753042252
3. 1771753044225
4. 1771753046208
5. 1771753048184
6. 1771753050114
7. 1771753052093
8. 1771753054071
9. 1771753056052
10. 1771753057976
11. 1771753059960
12. 1771753061932
13. 1771753063866
14. 1771753065839
15. 1771753067824
16. 1771753069749
17. 1771753071731
18. 1771753073710
19. 1771753075687
20. 1771753077621
21. 1771753079595
22. 1771753081582
23. 1771753083553
24. 1771753085490
25. 1771753087459
26. 1771753089397
27. 1771753091317
28. 1771753093304
29. 1771753095273
30. 1771753097212
31. 1771753099179
32. 1771753101119
33. 1771753103086
34. 1771753105026
35. 1771753106992
36. 1771753108933
37. 1771753110899
38. 1771753112842
39. 1771753114808
40. 1771753116753
41. 1771753118667
42. 1771753120613
43. 1771753122575
44. 1771753124474
45. 1771753126431
46. 1771753128334
47. 1771753130289
48. 1771753132193
49. 1771753134147
50. 1771753136052
51. 1771753138005
52. 1771753139909
53. 1771753141863
54. 1771753143767
55. 1771753145721
56. 1771753147623
57. 1771753149576
58. 1771753151480
59. 1771753153434
60. 1771753155339
61. 1771753157292
62. 1771753159196
63. 1771753161148
64. 1771753163055
65. 1771753165008
66. 1771753166913
67. 1771753168864
68. 1771753170771
69. 1771753172721
70. 1771753174579
71. 1771753176527
72. 1771753178436
73. 1771753180384
74. 1771753182293
75. 1771753184240
76. 1771753186150
77. 1771753188047
78. 1771753189957
79. 1771753191903
80. 1771753193815
81. 1771753195810
82. 1771753197724
83. 1771753199718
84. 1771753201580
85. 1771753203575
86. 1771753205488
87. 1771753207482
88. 1771753209394
89. 1771753211389
90. 1771753213302
91. 1771753215247
92. 1771753217158
93. 1771753219153
94. 1771753221065
