INITIAL
* 5:59pm Feb 22, 2026
* a1_stmu vs a0_mu
* 1 2 2 2 2 2 5 1 2 2 2 2 2 5
* X X X X
* X X X X
* X X X X
* X X X X
* X X X X
* X X X X
* X X X X
* X X X X
* first 0
* time 900
* 1. a8(N) b1(P)
* 2. c8(r) c7(c)
* 3. b8(P) b5(P)
* 4. b7(p) a7(p)
* 5. a8-a7 a4(r)
* 6. c2(k) c6(C)
* 7. a7-a8 d8(K)
* 8. c6-c8 d4(P)
* 9. b8-b7 d1(M)
* 10. a8-a7 b2(P)
* 11. a7-a8 a3(c)
* 12. c8-b8 b3(N)
* 13. b8-c8 d2(g)
* 14. a8-b8 d6(p)
* 15. b8-a8 a2(R)
* 16. a8-b8 c4(m)
* 17. b7-a7 b6(G)
* 18. a7-a8 a1(n)
* 19. a8-a7 a6(R)
* 20. b8-b7 d7(g)
* 21. a7-a8 c1(p)
* 22. b7-b8 c5(M)
* 23. a6-a7 c3(C)
* 24. b8-b7 c2-c3
* 25. a8-b8 d2-c2
* 26. a7-a8 a1-b1
* 27. a8-a7 c2-d2
* 28. a7-a8 b1-a1
* 29. a8-a7 a1-b1
* 30. a7-a8 b1-a1
* 31. a8-a7 a1-b1
* 32. a7-a8 b1-a1
* 33. b7-c7 a1-b1
* 34. b6-b7 d2-c2
* 35. a8-a7 c2-d2
* 36. a7-a8 d2-c2
* 37. a8-a7 c2-d2
* 38. a7-a8 d2-c2
* 39. b7-a7 c2-d2
* 40. b8-b7 d2-c2
* 41. a8-b8 c2-d2
* 42. a7-a8 b1-a1
* 43. b7-a7 a1-b1
* 44. c7-b7 b1-a1
* 45. b7-c7 a1-b1
* 46. c7-b7 d2-c2
* 47. c8-c7 c2-d2
* 48. b8-c8 d2-c2
* 49. a8-b8 c2-d2
* 50. d8-d7 d2-c2
* 51. a7-a8 b4(G)
* 52. c8-d8 b1-a1
* 53. b8-c8 a1-b1
* 54. b7-b8 c2-d2
* 55. b8-b7 b1-a1
* 56. b7-b8 a1-b1
* 57. c7-b7 b1-a1
* 58. a8-a7 a1-b1
* 59. a7-a8 b1-a1
* 60. a8-a7 a1-b1
* 61. a7-a8 b1-a1
* 62. a8-a7 a1-b1
* 63. a7-a8
* PositionRepetitionDraw,3,4 a1_stmu Draw 0.500000,0.500000
* Comment 0 0
0. 1771754354371
1. 1771754354371
2. 1771754356411
3. 1771754358318
4. 1771754360170
5. 1771754362025
6. 1771754363880
7. 1771754365780
8. 1771754367639
9. 1771754369537
10. 1771754371397
11. 1771754373243
12. 1771754375052
13. 1771754376949
14. 1771754378807
15. 1771754380705
16. 1771754382563
17. 1771754384463
18. 1771754386269
19. 1771754388169
20. 1771754390025
21. 1771754391927
22. 1771754393781
23. 1771754395633
24. 1771754397437
25. 1771754399339
26. 1771754401193
27. 1771754403094
28. 1771754404948
29. 1771754406851
30. 1771754408704
31. 1771754410606
32. 1771754412459
33. 1771754414363
34. 1771754416215
35. 1771754418071
36. 1771754419871
37. 1771754421729
38. 1771754423577
39. 1771754425437
40. 1771754427281
41. 1771754429144
42. 1771754430987
43. 1771754432850
44. 1771754434692
45. 1771754436557
46. 1771754438400
47. 1771754440314
48. 1771754442157
49. 1771754444020
50. 1771754445863
51. 1771754447727
52. 1771754449571
53. 1771754451433
54. 1771754453327
55. 1771754455190
56. 1771754457084
57. 1771754458947
58. 1771754460841
59. 1771754462702
60. 1771754464548
61. 1771754466408
62. 1771754468205
63. 1771754470114
64. 1771754471912
65. 1771754473821
66. 1771754475669
67. 1771754477527
68. 1771754479328
69. 1771754481186
70. 1771754482984
71. 1771754484843
72. 1771754486640
73. 1771754488501
74. 1771754490297
75. 1771754492159
76. 1771754494005
77. 1771754495867
78. 1771754497711
79. 1771754499574
80. 1771754501417
81. 1771754503280
82. 1771754505174
83. 1771754507035
84. 1771754508881
85. 1771754510742
86. 1771754512539
87. 1771754514398
88. 1771754516196
89. 1771754518055
90. 1771754519852
91. 1771754521714
92. 1771754523557
93. 1771754525421
94. 1771754527263
95. 1771754529131
96. 1771754530970
97. 1771754532839
98. 1771754534678
99. 1771754536548
100. 1771754538385
101. 1771754540258
102. 1771754542091
103. 1771754543966
104. 1771754545798
105. 1771754547676
106. 1771754549504
107. 1771754551382
108. 1771754553212
109. 1771754555087
110. 1771754556917
111. 1771754558792
112. 1771754560625
113. 1771754562498
114. 1771754564331
115. 1771754566205
116. 1771754568088
117. 1771754569962
118. 1771754571842
119. 1771754573716
120. 1771754575599
121. 1771754577521
122. 1771754579404
123. 1771754581327
124. 1771754583208
125. 1771754585131
