INITIAL
* 6:3pm Feb 22, 2026
* a0_mu vs a1_stmu
* 1 2 2 2 2 2 5 1 2 2 2 2 2 5
* X X X X
* X X X X
* X X X X
* X X X X
* X X X X
* X X X X
* X X X X
* X X X X
* first 0
* time 900
* 1. b1(R) d8(p)
* 2. c7(m) a8(M)
* 3. c6(p) a7(n)
* 4. a6(R) b8(k)
* 5. b5(g) b8-a8
* 6. a3(m) d7(p)
* 7. c3(p) c8(P)
* 8. c5(G) d8-c8
* 9. c2(N) a8-b8
* 10. d1(P) b8-a8
* 11. b7(M) a8-b8
* 12. b2(r) b8-a8
* 13. a5(r) d7-d8
* 14. d2(P) a8-b8
* 15. a6-a7 b8-b7
* 16. a7-a8 b7-b8
* 17. d4(P) b8-a8
* 18. b4(C) a8-b8
* 19. a2(c) b8-a8
* 20. d3(P) c8-b8
* 21. c1(c) a8-a7
* 22. b1-c1 a7-a8
* 23. c1-b1 b8-c8
* 24. c4(N) c8-b8
* 25. b3(n) d8-c8
* 26. d6(K) b8-b7
* 27. d5(C) a8-b8
* 28. d6-d7 b8-a8
* 29. d7-d8 b7-b8
* 30. d8-d7 a8-a7
* 31. d7-d8 a7-a8
* 32. d8-d7 a8-a7
* 33. d7-d8 a7-a8
* 34. d8-d7 a8-a7
* 35. d7-d8 a7-a8
* PositionRepetitionDraw,3,4 a0_mu Draw 0.500000,0.500000
* Comment 0 0
0. 1771754596873
1. 1771754596873
2. 1771754598961
3. 1771754600818
4. 1771754602716
5. 1771754604574
6. 1771754606471
7. 1771754608330
8. 1771754610225
9. 1771754612089
10. 1771754614031
11. 1771754615896
12. 1771754617836
13. 1771754619704
14. 1771754621642
15. 1771754623510
16. 1771754625449
17. 1771754627316
18. 1771754629255
19. 1771754631122
20. 1771754633062
21. 1771754634928
22. 1771754636819
23. 1771754638685
24. 1771754640627
25. 1771754642492
26. 1771754644430
27. 1771754646299
28. 1771754648237
29. 1771754650105
30. 1771754652043
31. 1771754653911
32. 1771754655850
33. 1771754657718
34. 1771754659656
35. 1771754661524
36. 1771754663461
37. 1771754665330
38. 1771754667266
39. 1771754669136
40. 1771754671071
41. 1771754672940
42. 1771754674877
43. 1771754676749
44. 1771754678685
45. 1771754680608
46. 1771754682539
47. 1771754684415
48. 1771754686345
49. 1771754688223
50. 1771754690151
51. 1771754692029
52. 1771754693956
53. 1771754695837
54. 1771754697762
55. 1771754699646
56. 1771754701569
57. 1771754703453
58. 1771754705376
59. 1771754707261
60. 1771754709182
61. 1771754711067
62. 1771754712988
63. 1771754714925
64. 1771754716844
65. 1771754718731
66. 1771754720648
67. 1771754722537
68. 1771754724455
69. 1771754726344
70. 1771754728262
